Single_Li2TiO3_long_
Wavelength = 1.54059 Ã… (Cu)
10.0	5097
10.01	5039
10.02	4941
10.03	4941
10.04	4936
10.05	4898
10.06	4970
10.07	4960
10.08	4957
10.09	4920
10.1	4982
10.11	4958
10.12	4889
10.13	4870
10.14	4860
10.15	4958
10.16	4958
10.17	5079
10.18	5022
10.19	4958
10.2	5026
10.21	5047
10.22	4946
10.23	4959
10.24	5034
10.25	5077
10.26	5041
10.27	4976
10.28	4993
10.29	5064
10.3	5077
10.31	5003
10.32	5010
10.33	5038
10.34	5084
10.35	5119
10.36	5087
10.37	5120
10.38	5098
10.39	5064
10.4	5121
10.41	5157
10.42	5128
10.43	5193
10.44	5156
10.45	5157
10.46	5271
10.47	5232
10.48	5226
10.49	5148
10.5	5204
10.51	5348
10.52	5169
10.53	5181
10.54	5168
10.55	5270
10.56	5247
10.57	5223
10.58	5232
10.59	5210
10.6	5298
10.61	5203
10.62	5213
10.63	5282
10.64	5322
10.65	5348
10.66	5250
10.67	5290
10.68	5282
10.69	5285
10.7	5333
10.71	5373
10.72	5416
10.73	5401
10.74	5414
10.75	5374
10.76	5447
10.77	5489
10.78	5404
10.79	5399
10.8	5489
10.81	5484
10.82	5375
10.83	5314
10.84	5396
10.85	5426
10.86	5489
10.87	5517
10.88	5499
10.89	5519
10.9	5554
10.91	5523
10.92	5534
10.93	5502
10.94	5514
10.95	5505
10.96	5622
10.97	5615
10.98	5582
10.99	5572
11.0	5591
11.01	5624
11.02	5537
11.03	5632
11.04	5631
11.05	5581
11.06	5605
11.07	5591
11.08	5667
11.09	5672
11.1	5721
11.11	5658
11.12	5657
11.13	5747
11.14	5770
11.15	5788
11.16	5834
11.17	5706
11.18	5712
11.19	5727
11.2	5796
11.21	5819
11.22	5828
11.23	5807
11.24	5830
11.25	5793
11.26	5721
11.27	5712
11.28	5796
11.29	5863
11.3	5859
11.31	5840
11.32	5871
11.33	5934
11.34	5903
11.35	5862
11.36	5880
11.37	5828
11.38	5845
11.39	5949
11.4	6062
11.41	5950
11.42	5943
11.43	5916
11.44	5913
11.45	5996
11.46	6009
11.47	6117
11.48	6069
11.49	5975
11.5	5961
11.51	6029
11.52	6014
11.53	6008
11.54	6122
11.55	6068
11.56	6043
11.57	6096
11.58	6092
11.59	6146
11.6	6106
11.61	6104
11.62	6191
11.63	6233
11.64	6130
11.65	6128
11.66	6209
11.67	6180
11.68	6181
11.69	6182
11.7	6223
11.71	6183
11.72	6163
11.73	6205
11.74	6252
11.75	6176
11.76	6120
11.77	6211
11.78	6197
11.79	6259
11.8	6385
11.81	6450
11.82	6361
11.83	6285
11.84	6251
11.85	6240
11.86	6294
11.87	6364
11.88	6351
11.89	6284
11.9	6362
11.91	6301
11.92	6299
11.93	6369
11.94	6347
11.95	6341
11.96	6389
11.97	6400
11.98	6481
11.99	6468
12.0	6264
12.01	6326
12.02	6466
12.03	6503
12.04	6519
12.05	6464
12.06	6492
12.07	6573
12.08	6476
12.09	6514
12.1	6617
12.11	6551
12.12	6552
12.13	6647
12.14	6676
12.15	6607
12.16	6653
12.17	6589
12.18	6601
12.19	6603
12.2	6623
12.21	6677
12.22	6687
12.23	6662
12.24	6654
12.25	6746
12.26	6760
12.27	6687
12.28	6754
12.29	6729
12.3	6692
12.31	6743
12.32	6843
12.33	6693
12.34	6687
12.35	6798
12.36	6800
12.37	6779
12.38	6791
12.39	6861
12.4	6910
12.41	6956
12.42	6910
12.43	6888
12.44	6957
12.45	7037
12.46	7155
12.47	7017
12.48	7117
12.49	7078
12.5	7085
12.51	7169
12.52	7139
12.53	6987
12.54	6969
12.55	7116
12.56	7148
12.57	7242
12.58	7237
12.59	7203
12.6	7148
12.61	7152
12.62	7221
12.63	7176
12.64	7218
12.65	7227
12.66	7238
12.67	7321
12.68	7350
12.69	7321
12.7	7374
12.71	7432
12.72	7491
12.73	7373
12.74	7410
12.75	7472
12.76	7499
12.77	7554
12.78	7560
12.79	7587
12.8	7601
12.81	7621
12.82	7647
12.83	7761
12.84	7714
12.85	7687
12.86	7744
12.87	7746
12.88	7657
12.89	7740
12.9	7827
12.91	7879
12.92	7866
12.93	7864
12.94	7900
12.95	7921
12.96	7954
12.97	7931
12.98	8018
12.99	8109
13.0	8118
13.01	8141
13.02	8181
13.03	8218
13.04	8240
13.05	8198
13.06	8262
13.07	8359
13.08	8373
13.09	8386
13.1	8392
13.11	8467
13.12	8465
13.13	8531
13.14	8458
13.15	8614
13.16	8669
13.17	8708
13.18	8643
13.19	8655
13.2	8693
13.21	8844
13.22	8881
13.23	8904
13.24	8869
13.25	8948
13.26	8972
13.27	9033
13.28	9019
13.29	9154
13.3	9183
13.31	9175
13.32	9353
13.33	9326
13.34	9354
13.35	9364
13.36	9356
13.37	9495
13.38	9605
13.39	9542
13.4	9599
13.41	9690
13.42	9598
13.43	9659
13.44	9770
13.45	9823
13.46	9807
13.47	9943
13.48	9979
13.49	10062
13.5	10071
13.51	10132
13.52	10087
13.53	10177
13.54	10160
13.55	10168
13.56	10220
13.57	10301
13.58	10281
13.59	10391
13.6	10451
13.61	10571
13.62	10610
13.63	10608
13.64	10584
13.65	10808
13.66	10918
13.67	10833
13.68	10953
13.69	10971
13.7	10922
13.71	10953
13.72	11003
13.73	11150
13.74	11271
13.75	11271
13.76	11323
13.77	11236
13.78	11299
13.79	11370
13.8	11468
13.81	11524
13.82	11430
13.83	11434
13.84	11723
13.85	11847
13.86	11790
13.87	11711
13.88	11891
13.89	11894
13.9	11857
13.91	11848
13.92	11971
13.93	11998
13.94	11877
13.95	11999
13.96	12048
13.97	12115
13.98	12300
13.99	12265
14.0	12325
14.01	12463
14.02	12527
14.03	12468
14.04	12380
14.05	12461
14.06	12611
14.07	12632
14.08	12658
14.09	12674
14.1	12659
14.11	12715
14.12	12806
14.13	12847
14.14	12936
14.15	12985
14.16	13045
14.17	12996
14.18	12888
14.19	12985
14.2	13091
14.21	13213
14.22	13213
14.23	13082
14.24	13060
14.25	13222
14.26	13370
14.27	13292
14.28	13222
14.29	13329
14.3	13382
14.31	13302
14.32	13316
14.33	13424
14.34	13557
14.35	13511
14.36	13456
14.37	13536
14.38	13564
14.39	13529
14.4	13581
14.41	13706
14.42	13641
14.43	13701
14.44	13793
14.45	13799
14.46	13765
14.47	13742
14.48	13707
14.49	13791
14.5	13593
14.51	13548
14.52	13793
14.53	13834
14.54	13811
14.55	13753
14.56	13723
14.57	13810
14.58	13830
14.59	13865
14.6	13927
14.61	13945
14.62	13957
14.63	14016
14.64	13916
14.65	13870
14.66	13884
14.67	13927
14.68	13956
14.69	13876
14.7	13909
14.71	13953
14.72	13959
14.73	13919
14.74	13934
14.75	13897
14.76	13928
14.77	13906
14.78	13858
14.79	13917
14.8	13991
14.81	14000
14.82	13934
14.83	13941
14.84	13966
14.85	13911
14.86	13957
14.87	13971
14.88	13903
14.89	13928
14.9	14020
14.91	14008
14.92	14000
14.93	13966
14.94	13822
14.95	13811
14.96	13920
14.97	13933
14.98	13880
14.99	13998
15.0	14006
15.01	13881
15.02	13850
15.03	13884
15.04	13820
15.05	13865
15.06	13987
15.07	13930
15.08	13852
15.09	13951
15.1	13984
15.11	13846
15.12	13736
15.13	13868
15.14	13917
15.15	13902
15.16	13851
15.17	13796
15.18	13718
15.19	13745
15.2	13795
15.21	13789
15.22	13740
15.23	13700
15.24	13745
15.25	13690
15.26	13624
15.27	13661
15.28	13701
15.29	13770
15.3	13728
15.31	13679
15.32	13742
15.33	13727
15.34	13621
15.35	13573
15.36	13649
15.37	13489
15.38	13434
15.39	13441
15.4	13541
15.41	13596
15.42	13522
15.43	13487
15.44	13482
15.45	13469
15.46	13401
15.47	13557
15.48	13578
15.49	13566
15.5	13617
15.51	13502
15.52	13419
15.53	13422
15.54	13323
15.55	13260
15.56	13380
15.57	13486
15.58	13472
15.59	13401
15.6	13350
15.61	13430
15.62	13303
15.63	13318
15.64	13196
15.65	13179
15.66	13259
15.67	13264
15.68	13199
15.69	13124
15.7	13064
15.71	13127
15.72	13214
15.73	13240
15.74	13234
15.75	13141
15.76	13253
15.77	13280
15.78	13161
15.79	13138
15.8	13075
15.81	13104
15.82	13171
15.83	13176
15.84	13202
15.85	13239
15.86	13105
15.87	13058
15.88	13071
15.89	13019
15.9	13030
15.91	13099
15.92	13139
15.93	13151
15.94	13075
15.95	13047
15.96	13112
15.97	13025
15.98	12938
15.99	12977
16.0	13036
16.01	12989
16.02	12955
16.03	12859
16.04	12817
16.05	12858
16.06	12891
16.07	12955
16.08	12993
16.09	13021
16.1	13035
16.11	12963
16.12	12938
16.13	12931
16.14	12950
16.15	12969
16.16	12919
16.17	12895
16.18	12854
16.19	12803
16.2	12888
16.21	12948
16.22	12846
16.23	12937
16.24	12892
16.25	12817
16.26	12756
16.27	12784
16.28	12855
16.29	12905
16.3	12924
16.31	12888
16.32	12820
16.33	12799
16.34	12790
16.35	12832
16.36	12738
16.37	12716
16.38	12810
16.39	12821
16.4	12857
16.41	12865
16.42	12806
16.43	12828
16.44	12841
16.45	12848
16.46	12815
16.47	12792
16.48	12809
16.49	12823
16.5	12864
16.51	12926
16.52	12885
16.53	12769
16.54	12787
16.55	12831
16.56	12839
16.57	12861
16.58	12860
16.59	12772
16.6	12679
16.61	12833
16.62	12921
16.63	12773
16.64	12772
16.65	12830
16.66	12777
16.67	12794
16.68	12896
16.69	12957
16.7	12899
16.71	12876
16.72	12877
16.73	12896
16.74	12868
16.75	12919
16.76	12979
16.77	12876
16.78	12823
16.79	12870
16.8	12905
16.81	12882
16.82	12824
16.83	12804
16.84	12792
16.85	12697
16.86	12655
16.87	12800
16.88	12954
16.89	12923
16.9	12893
16.91	12888
16.92	12952
16.93	12940
16.94	12894
16.95	12943
16.96	12983
16.97	12964
16.98	12945
16.99	12993
17.0	13036
17.01	13038
17.02	13006
17.03	12934
17.04	12911
17.05	12905
17.06	12896
17.07	12973
17.08	13044
17.09	13000
17.1	13046
17.11	13066
17.12	12958
17.13	13044
17.14	13020
17.15	12939
17.16	12904
17.17	12863
17.18	12891
17.19	12919
17.2	13005
17.21	13036
17.22	13005
17.23	13040
17.24	13025
17.25	13014
17.26	13052
17.27	13027
17.28	13032
17.29	13081
17.3	13092
17.31	13117
17.32	13135
17.33	13042
17.34	12930
17.35	12940
17.36	12980
17.37	12995
17.38	12930
17.39	12972
17.4	13067
17.41	12951
17.42	12909
17.43	13079
17.44	13145
17.45	13094
17.46	13074
17.47	13108
17.48	13125
17.49	13001
17.5	13035
17.51	13149
17.52	13150
17.53	13153
17.54	13262
17.55	13253
17.56	13090
17.57	13130
17.58	13097
17.59	12998
17.6	13159
17.61	13377
17.62	13297
17.63	13113
17.64	13134
17.65	13234
17.66	13290
17.67	13265
17.68	13187
17.69	13084
17.7	13084
17.71	13287
17.72	13324
17.73	13247
17.74	13344
17.75	13393
17.76	13313
17.77	13245
17.78	13222
17.79	13225
17.8	13207
17.81	13097
17.82	13065
17.83	13219
17.84	13308
17.85	13165
17.86	13178
17.87	13294
17.88	13246
17.89	13200
17.9	13243
17.91	13289
17.92	13350
17.93	13365
17.94	13328
17.95	13350
17.96	13396
17.97	13368
17.98	13297
17.99	13303
18.0	13346
18.01	13344
18.02	13301
18.03	13373
18.04	13470
18.05	13494
18.06	13363
18.07	13261
18.08	13326
18.09	13421
18.1	13485
18.11	13421
18.12	13341
18.13	13386
18.14	13408
18.15	13491
18.16	13476
18.17	13351
18.18	13294
18.19	13388
18.2	13514
18.21	13535
18.22	13543
18.23	13594
18.24	13620
18.25	13557
18.26	13527
18.27	13559
18.28	13639
18.29	13675
18.3	13695
18.31	13753
18.32	13719
18.33	13767
18.34	13840
18.35	13850
18.36	13853
18.37	13771
18.38	13761
18.39	13826
18.4	13825
18.41	13861
18.42	13911
18.43	14034
18.44	14012
18.45	13975
18.46	14098
18.47	14201
18.48	14207
18.49	14083
18.5	13971
18.51	13950
18.52	14019
18.53	14059
18.54	14041
18.55	14021
18.56	14050
18.57	14002
18.58	13928
18.59	13908
18.6	13921
18.61	13863
18.62	13773
18.63	13850
18.64	13915
18.65	13856
18.66	13805
18.67	13758
18.68	13719
18.69	13653
18.7	13692
18.71	13821
18.72	13865
18.73	13713
18.74	13669
18.75	13718
18.76	13729
18.77	13693
18.78	13692
18.79	13767
18.8	13722
18.81	13632
18.82	13682
18.83	13685
18.84	13650
18.85	13597
18.86	13548
18.87	13574
18.88	13553
18.89	13574
18.9	13701
18.91	13712
18.92	13655
18.93	13639
18.94	13547
18.95	13505
18.96	13533
18.97	13527
18.98	13481
18.99	13463
19.0	13489
19.01	13581
19.02	13593
19.03	13513
19.04	13538
19.05	13554
19.06	13471
19.07	13490
19.08	13407
19.09	13418
19.1	13500
19.11	13509
19.12	13529
19.13	13602
19.14	13581
19.15	13506
19.16	13449
19.17	13340
19.18	13389
19.19	13521
19.2	13471
19.21	13386
19.22	13324
19.23	13343
19.24	13344
19.25	13402
19.26	13456
19.27	13446
19.28	13398
19.29	13421
19.3	13393
19.31	13327
19.32	13325
19.33	13398
19.34	13353
19.35	13322
19.36	13444
19.37	13497
19.38	13429
19.39	13467
19.4	13444
19.41	13465
19.42	13431
19.43	13404
19.44	13437
19.45	13406
19.46	13362
19.47	13213
19.48	13212
19.49	13321
19.5	13394
19.51	13296
19.52	13310
19.53	13415
19.54	13451
19.55	13367
19.56	13377
19.57	13447
19.58	13469
19.59	13431
19.6	13381
19.61	13443
19.62	13458
19.63	13500
19.64	13507
19.65	13512
19.66	13420
19.67	13334
19.68	13294
19.69	13403
19.7	13404
19.71	13452
19.72	13477
19.73	13452
19.74	13425
19.75	13345
19.76	13312
19.77	13362
19.78	13466
19.79	13411
19.8	13261
19.81	13231
19.82	13299
19.83	13373
19.84	13336
19.85	13361
19.86	13372
19.87	13246
19.88	13199
19.89	13237
19.9	13388
19.91	13386
19.92	13334
19.93	13388
19.94	13420
19.95	13294
19.96	13170
19.97	13189
19.98	13374
19.99	13388
20.0	13271
20.01	13230
20.02	13279
20.03	13368
20.04	13318
20.05	13313
20.06	13435
20.07	13395
20.08	13328
20.09	13390
20.1	13416
20.11	13417
20.12	13439
20.13	13391
20.14	13339
20.15	13339
20.16	13382
20.17	13494
20.18	13460
20.19	13406
20.2	13455
20.21	13439
20.22	13432
20.23	13400
20.24	13330
20.25	13355
20.26	13340
20.27	13434
20.28	13469
20.29	13558
20.3	13489
20.31	13422
20.32	13379
20.33	13530
20.34	13560
20.35	13525
20.36	13509
20.37	13549
20.38	13601
20.39	13555
20.4	13452
20.41	13478
20.42	13575
20.43	13621
20.44	13566
20.45	13541
20.46	13616
20.47	13548
20.48	13547
20.49	13502
20.5	13582
20.51	13651
20.52	13695
20.53	13655
20.54	13615
20.55	13522
20.56	13583
20.57	13648
20.58	13515
20.59	13471
20.6	13577
20.61	13675
20.62	13613
20.63	13472
20.64	13554
20.65	13551
20.66	13579
20.67	13691
20.68	13780
20.69	13745
20.7	13730
20.71	13571
20.72	13584
20.73	13540
20.74	13716
20.75	13807
20.76	13737
20.77	13707
20.78	13800
20.79	13765
20.8	13629
20.81	13688
20.82	13838
20.83	13841
20.84	13733
20.85	13727
20.86	13728
20.87	13780
20.88	13859
20.89	13774
20.9	13878
20.91	13729
20.92	13713
20.93	13833
20.94	13840
20.95	13785
20.96	13811
20.97	13984
20.98	14062
20.99	14111
21.0	14049
21.01	13873
21.02	13997
21.03	14009
21.04	13996
21.05	14085
21.06	13985
21.07	14062
21.08	14033
21.09	13990
21.1	14135
21.11	14032
21.12	14066
21.13	14218
21.14	14230
21.15	14111
21.16	14036
21.17	14150
21.18	14211
21.19	14190
21.2	14135
21.21	14108
21.22	14141
21.23	14212
21.24	14266
21.25	14327
21.26	14275
21.27	14185
21.28	14126
21.29	14257
21.3	14475
21.31	14338
21.32	14309
21.33	14372
21.34	14448
21.35	14420
21.36	14367
21.37	14261
21.38	14292
21.39	14334
21.4	14292
21.41	14353
21.42	14393
21.43	14437
21.44	14395
21.45	14459
21.46	14507
21.47	14518
21.48	14555
21.49	14489
21.5	14501
21.51	14469
21.52	14556
21.53	14537
21.54	14520
21.55	14543
21.56	14533
21.57	14536
21.58	14522
21.59	14532
21.6	14635
21.61	14774
21.62	14684
21.63	14479
21.64	14569
21.65	14550
21.66	14550
21.67	14715
21.68	14623
21.69	14473
21.7	14475
21.71	14701
21.72	14637
21.73	14658
21.74	14585
21.75	14613
21.76	14588
21.77	14503
21.78	14485
21.79	14593
21.8	14565
21.81	14674
21.82	14644
21.83	14695
21.84	14654
21.85	14445
21.86	14463
21.87	14507
21.88	14586
21.89	14601
21.9	14647
21.91	14502
21.92	14502
21.93	14655
21.94	14556
21.95	14421
21.96	14392
21.97	14300
21.98	14434
21.99	14625
22.0	14534
22.01	14424
22.02	14317
22.03	14329
22.04	14408
22.05	14513
22.06	14480
22.07	14442
22.08	14436
22.09	14491
22.1	14269
22.11	14241
22.12	14321
22.13	14427
22.14	14299
22.15	14274
22.16	14337
22.17	14128
22.18	14205
22.19	14002
22.2	14050
22.21	14111
22.22	14188
22.23	13923
22.24	13940
22.25	14089
22.26	14077
22.27	13997
22.28	13943
22.29	13955
22.3	14071
22.31	14116
22.32	13875
22.33	13907
22.34	13882
22.35	13835
22.36	13769
22.37	13698
22.38	13690
22.39	13710
22.4	13767
22.41	13658
22.42	13545
22.43	13481
22.44	13607
22.45	13594
22.46	13548
22.47	13446
22.48	13529
22.49	13532
22.5	13466
22.51	13506
22.52	13499
22.53	13412
22.54	13334
22.55	13196
22.56	13199
22.57	13323
22.58	13413
22.59	13248
22.6	13047
22.61	13209
22.62	13244
22.63	13028
22.64	12927
22.65	12957
22.66	13158
22.67	13075
22.68	12912
22.69	12879
22.7	12872
22.71	12931
22.72	12963
22.73	12828
22.74	12649
22.75	12756
22.76	12697
22.77	12808
22.78	12777
22.79	12753
22.8	12730
22.81	12655
22.82	12452
22.83	12499
22.84	12349
22.85	12421
22.86	12454
22.87	12393
22.88	12399
22.89	12416
22.9	12318
22.91	12275
22.92	12226
22.93	12208
22.94	12096
22.95	12037
22.96	12057
22.97	11974
22.98	11978
22.99	12111
23.0	12153
23.01	12144
23.02	12076
23.03	11915
23.04	11913
23.05	11928
23.06	11879
23.07	11869
23.08	11860
23.09	11820
23.1	11826
23.11	11617
23.12	11641
23.13	11642
23.14	11592
23.15	11539
23.16	11594
23.17	11674
23.18	11571
23.19	11553
23.2	11530
23.21	11371
23.22	11318
23.23	11343
23.24	11132
23.25	11154
23.26	11261
23.27	11164
23.28	11078
23.29	11168
23.3	11147
23.31	11065
23.32	11050
23.33	10970
23.34	10850
23.35	10958
23.36	10959
23.37	10841
23.38	10917
23.39	10980
23.4	10999
23.41	10952
23.42	10828
23.43	10826
23.44	10800
23.45	10766
23.46	10792
23.47	10747
23.48	10843
23.49	10677
23.5	10683
23.51	10609
23.52	10623
23.53	10638
23.54	10553
23.55	10477
23.56	10573
23.57	10549
23.58	10524
23.59	10456
23.6	10324
23.61	10354
23.62	10402
23.63	10326
23.64	10341
23.65	10447
23.66	10433
23.67	10398
23.68	10134
23.69	10220
23.7	10366
23.71	10294
23.72	10147
23.73	10176
23.74	10219
23.75	10268
23.76	10228
23.77	10069
23.78	10063
23.79	10049
23.8	10049
23.81	10103
23.82	10066
23.83	9957
23.84	9896
23.85	9912
23.86	9901
23.87	9985
23.88	9900
23.89	9773
23.9	9868
23.91	9836
23.92	9933
23.93	9839
23.94	9932
23.95	9925
23.96	9851
23.97	9685
23.98	9687
23.99	9702
24.0	9687
24.01	9672
24.02	9661
24.03	9756
24.04	9726
24.05	9651
24.06	9662
24.07	9711
24.08	9675
24.09	9593
24.1	9537
24.11	9547
24.12	9517
24.13	9490
24.14	9580
24.15	9570
24.16	9625
24.17	9693
24.18	9564
24.19	9453
24.2	9521
24.21	9527
24.22	9535
24.23	9393
24.24	9309
24.25	9329
24.26	9380
24.27	9271
24.28	9270
24.29	9246
24.3	9251
24.31	9283
24.32	9346
24.33	9326
24.34	9364
24.35	9292
24.36	9288
24.37	9201
24.38	9212
24.39	9263
24.4	9298
24.41	9337
24.42	9251
24.43	9252
24.44	9302
24.45	9310
24.46	9342
24.47	9254
24.48	9121
24.49	9048
24.5	8964
24.51	9122
24.52	9217
24.53	9289
24.54	9222
24.55	9218
24.56	9206
24.57	9139
24.58	9093
24.59	9138
24.6	9181
24.61	9086
24.62	9087
24.63	9082
24.64	9019
24.65	9117
24.66	9142
24.67	9122
24.68	9191
24.69	9224
24.7	9143
24.71	9182
24.72	9115
24.73	9176
24.74	9242
24.75	9073
24.76	9182
24.77	9125
24.78	9025
24.79	9058
24.8	9154
24.81	9177
24.82	9147
24.83	9027
24.84	9068
24.85	9197
24.86	9165
24.87	9144
24.88	9174
24.89	9201
24.9	9088
24.91	9017
24.92	9013
24.93	9014
24.94	9057
24.95	9094
24.96	9153
24.97	9132
24.98	9086
24.99	9060
25.0	9059
25.01	9082
25.02	9059
25.03	9104
25.04	9092
25.05	9066
25.06	9104
25.07	9125
25.08	9075
25.09	9191
25.1	9171
25.11	9122
25.12	9153
25.13	9087
25.14	9198
25.15	9324
25.16	9282
25.17	9176
25.18	9217
25.19	9267
25.2	9257
25.21	9318
25.22	9329
25.23	9341
25.24	9361
25.25	9469
25.26	9475
25.27	9408
25.28	9346
25.29	9355
25.3	9385
25.31	9479
25.32	9586
25.33	9480
25.34	9554
25.35	9734
25.36	9749
25.37	9670
25.38	9653
25.39	9758
25.4	9792
25.41	9802
25.42	9818
25.43	9870
25.44	9849
25.45	9761
25.46	9686
25.47	9599
25.48	9571
25.49	9524
25.5	9508
25.51	9600
25.52	9633
25.53	9531
25.54	9499
25.55	9536
25.56	9505
25.57	9436
25.58	9387
25.59	9334
25.6	9368
25.61	9416
25.62	9362
25.63	9267
25.64	9340
25.65	9303
25.66	9274
25.67	9326
25.68	9359
25.69	9355
25.7	9306
25.71	9306
25.72	9247
25.73	9300
25.74	9448
25.75	9417
25.76	9392
25.77	9358
25.78	9334
25.79	9290
25.8	9360
25.81	9433
25.82	9450
25.83	9420
25.84	9406
25.85	9389
25.86	9390
25.87	9389
25.88	9390
25.89	9348
25.9	9317
25.91	9307
25.92	9328
25.93	9406
25.94	9393
25.95	9296
25.96	9322
25.97	9338
25.98	9278
25.99	9284
26.0	9249
26.01	9261
26.02	9249
26.03	9303
26.04	9380
26.05	9304
26.06	9261
26.07	9327
26.08	9280
26.09	9240
26.1	9224
26.11	9211
26.12	9251
26.13	9240
26.14	9214
26.15	9185
26.16	9242
26.17	9256
26.18	9221
26.19	9213
26.2	9212
26.21	9220
26.22	9208
26.23	9188
26.24	9189
26.25	9200
26.26	9194
26.27	9151
26.28	9112
26.29	9145
26.3	9134
26.31	9024
26.32	9030
26.33	9085
26.34	9082
26.35	9091
26.36	9104
26.37	9094
26.38	9063
26.39	9049
26.4	9031
26.41	9054
26.42	9037
26.43	9037
26.44	9029
26.45	8984
26.46	8943
26.47	8939
26.48	8930
26.49	8940
26.5	8943
26.51	8939
26.52	8867
26.53	8778
26.54	8766
26.55	8758
26.56	8779
26.57	8735
26.58	8695
26.59	8701
26.6	8686
26.61	8732
26.62	8743
26.63	8762
26.64	8751
26.65	8665
26.66	8611
26.67	8627
26.68	8660
26.69	8586
26.7	8444
26.71	8416
26.72	8481
26.73	8520
26.74	8523
26.75	8476
26.76	8444
26.77	8492
26.78	8490
26.79	8459
26.8	8422
26.81	8350
26.82	8319
26.83	8387
26.84	8416
26.85	8325
26.86	8279
26.87	8272
26.88	8225
26.89	8150
26.9	8134
26.91	8178
26.92	8208
26.93	8165
26.94	8077
26.95	8069
26.96	8125
26.97	8137
26.98	8146
26.99	8104
27.0	8033
27.01	7982
27.02	7920
27.03	7908
27.04	7913
27.05	7895
27.06	7935
27.07	7946
27.08	7904
27.09	7893
27.1	7910
27.11	7862
27.12	7820
27.13	7825
27.14	7762
27.15	7664
27.16	7648
27.17	7652
27.18	7655
27.19	7691
27.2	7644
27.21	7606
27.22	7676
27.23	7675
27.24	7626
27.25	7601
27.26	7472
27.27	7401
27.28	7400
27.29	7406
27.3	7371
27.31	7272
27.32	7231
27.33	7234
27.34	7259
27.35	7276
27.36	7278
27.37	7277
27.38	7237
27.39	7201
27.4	7304
27.41	7365
27.42	7300
27.43	7242
27.44	7210
27.45	7213
27.46	7177
27.47	7162
27.48	7155
27.49	7088
27.5	7039
27.51	7001
27.52	7011
27.53	7026
27.54	7047
27.55	7040
27.56	6979
27.57	6961
27.58	6918
27.59	6887
27.6	6846
27.61	6816
27.62	6836
27.63	6874
27.64	6832
27.65	6763
27.66	6798
27.67	6812
27.68	6740
27.69	6673
27.7	6666
27.71	6745
27.72	6722
27.73	6603
27.74	6636
27.75	6688
27.76	6633
27.77	6624
27.78	6631
27.79	6589
27.8	6616
27.81	6620
27.82	6555
27.83	6491
27.84	6492
27.85	6495
27.86	6498
27.87	6486
27.88	6450
27.89	6349
27.9	6276
27.91	6319
27.92	6426
27.93	6469
27.94	6425
27.95	6362
27.96	6343
27.97	6360
27.98	6328
27.99	6216
28.0	6197
28.01	6244
28.02	6263
28.03	6264
28.04	6231
28.05	6156
28.06	6170
28.07	6212
28.08	6224
28.09	6197
28.1	6142
28.11	6118
28.12	6103
28.13	6145
28.14	6118
28.15	6056
28.16	6022
28.17	6001
28.18	6015
28.19	6007
28.2	5993
28.21	5933
28.22	5881
28.23	5844
28.24	5873
28.25	5942
28.26	5931
28.27	5963
28.28	5943
28.29	5878
28.3	5904
28.31	5940
28.32	5909
28.33	5849
28.34	5704
28.35	5661
28.36	5743
28.37	5791
28.38	5798
28.39	5784
28.4	5807
28.41	5793
28.42	5728
28.43	5750
28.44	5760
28.45	5717
28.46	5700
28.47	5653
28.48	5641
28.49	5694
28.5	5669
28.51	5651
28.52	5715
28.53	5704
28.54	5636
28.55	5605
28.56	5643
28.57	5731
28.58	5683
28.59	5578
28.6	5508
28.61	5571
28.62	5617
28.63	5519
28.64	5488
28.65	5473
28.66	5504
28.67	5525
28.68	5521
28.69	5531
28.7	5556
28.71	5545
28.72	5498
28.73	5487
28.74	5490
28.75	5430
28.76	5413
28.77	5358
28.78	5315
28.79	5321
28.8	5355
28.81	5375
28.82	5347
28.83	5304
28.84	5316
28.85	5322
28.86	5295
28.87	5313
28.88	5312
28.89	5266
28.9	5236
28.91	5198
28.92	5212
28.93	5235
28.94	5180
28.95	5178
28.96	5181
28.97	5224
28.98	5253
28.99	5171
29.0	5129
29.01	5063
29.02	5066
29.03	5175
29.04	5198
29.05	5168
29.06	5129
29.07	5147
29.08	5150
29.09	5084
29.1	5063
29.11	5089
29.12	5062
29.13	5078
29.14	5037
29.15	5022
29.16	5095
29.17	4999
29.18	5065
29.19	4993
29.2	4955
29.21	4998
29.22	5014
29.23	5064
29.24	5031
29.25	5009
29.26	5033
29.27	4936
29.28	4950
29.29	4937
29.3	4884
29.31	4892
29.32	4913
29.33	4919
29.34	4926
29.35	4849
29.36	4907
29.37	4937
29.38	4969
29.39	4965
29.4	4906
29.41	4888
29.42	4795
29.43	4849
29.44	4872
29.45	4854
29.46	4895
29.47	4863
29.48	4797
29.49	4838
29.5	4805
29.51	4807
29.52	4737
29.53	4643
29.54	4704
29.55	4827
29.56	4766
29.57	4626
29.58	4644
29.59	4647
29.6	4607
29.61	4596
29.62	4620
29.63	4624
29.64	4620
29.65	4598
29.66	4563
29.67	4664
29.68	4594
29.69	4554
29.7	4593
29.71	4585
29.72	4528
29.73	4572
29.74	4519
29.75	4458
29.76	4484
29.77	4480
29.78	4476
29.79	4500
29.8	4537
29.81	4475
29.82	4464
29.83	4515
29.84	4446
29.85	4487
29.86	4473
29.87	4460
29.88	4462
29.89	4481
29.9	4496
29.91	4505
29.92	4439
29.93	4383
29.94	4399
29.95	4351
29.96	4300
29.97	4301
29.98	4262
29.99	4299
30.0	4364
30.01	4314
30.02	4278
30.03	4277
30.04	4198
30.05	4253
30.06	4259
30.07	4190
30.08	4179
30.09	4216
30.1	4190
30.11	4176
30.12	4242
30.13	4318
30.14	4265
30.15	4216
30.16	4256
30.17	4204
30.18	4146
30.19	4169
30.2	4235
30.21	4216
30.22	4188
30.23	4214
30.24	4178
30.25	4213
30.26	4155
30.27	4148
30.28	4222
30.29	4268
30.3	4215
30.31	4181
30.32	4176
30.33	4206
30.34	4232
30.35	4172
30.36	4129
30.37	4162
30.38	4150
30.39	4146
30.4	4105
30.41	4104
30.42	4083
30.43	4114
30.44	4117
30.45	4065
30.46	4089
30.47	4147
30.48	4186
30.49	4040
30.5	4069
30.51	4108
30.52	4107
30.53	4075
30.54	4046
30.55	4023
30.56	4095
30.57	4115
30.58	4098
30.59	4080
30.6	4109
30.61	4110
30.62	4067
30.63	4048
30.64	3979
30.65	4011
30.66	4072
30.67	4086
30.68	4045
30.69	4049
30.7	4081
30.71	4111
30.72	4109
30.73	4037
30.74	4021
30.75	4073
30.76	4057
30.77	3998
30.78	4023
30.79	4034
30.8	3995
30.81	3935
30.82	3914
30.83	3979
30.84	3967
30.85	3932
30.86	3905
30.87	3846
30.88	3853
30.89	3860
30.9	3848
30.91	3843
30.92	3775
30.93	3819
30.94	3786
30.95	3775
30.96	3735
30.97	3711
30.98	3784
30.99	3804
31.0	3830
31.01	3802
31.02	3742
31.03	3722
31.04	3740
31.05	3824
31.06	3834
31.07	3740
31.08	3769
31.09	3717
31.1	3686
31.11	3706
31.12	3731
31.13	3761
31.14	3720
31.15	3712
31.16	3745
31.17	3707
31.18	3708
31.19	3636
31.2	3629
31.21	3723
31.22	3816
31.23	3718
31.24	3642
31.25	3674
31.26	3656
31.27	3668
31.28	3707
31.29	3659
31.3	3629
31.31	3669
31.32	3639
31.33	3685
31.34	3634
31.35	3643
31.36	3649
31.37	3642
31.38	3649
31.39	3593
31.4	3572
31.41	3635
31.42	3662
31.43	3581
31.44	3516
31.45	3605
31.46	3639
31.47	3652
31.48	3597
31.49	3551
31.5	3563
31.51	3610
31.52	3634
31.53	3616
31.54	3568
31.55	3572
31.56	3556
31.57	3566
31.58	3534
31.59	3498
31.6	3580
31.61	3559
31.62	3545
31.63	3527
31.64	3559
31.65	3565
31.66	3522
31.67	3493
31.68	3500
31.69	3459
31.7	3501
31.71	3553
31.72	3653
31.73	3592
31.74	3525
31.75	3526
31.76	3542
31.77	3602
31.78	3529
31.79	3522
31.8	3533
31.81	3574
31.82	3539
31.83	3448
31.84	3422
31.85	3451
31.86	3464
31.87	3426
31.88	3472
31.89	3454
31.9	3442
31.91	3437
31.92	3405
31.93	3337
31.94	3408
31.95	3362
31.96	3430
31.97	3462
31.98	3362
31.99	3380
32.0	3442
32.01	3456
32.02	3376
32.03	3384
32.04	3445
32.05	3419
32.06	3377
32.07	3363
32.08	3329
32.09	3346
32.1	3309
32.11	3341
32.12	3316
32.13	3402
32.14	3342
32.15	3296
32.16	3310
32.17	3242
32.18	3274
32.19	3268
32.2	3254
32.21	3265
32.22	3273
32.23	3322
32.24	3244
32.25	3193
32.26	3237
32.27	3270
32.28	3296
32.29	3231
32.3	3183
32.31	3248
32.32	3249
32.33	3193
32.34	3233
32.35	3271
32.36	3222
32.37	3213
32.38	3274
32.39	3270
32.4	3217
32.41	3236
32.42	3260
32.43	3207
32.44	3210
32.45	3209
32.46	3160
32.47	3208
32.48	3234
32.49	3211
32.5	3183
32.51	3216
32.52	3225
32.53	3224
32.54	3320
32.55	3215
32.56	3270
32.57	3248
32.58	3218
32.59	3235
32.6	3165
32.61	3151
32.62	3107
32.63	3181
32.64	3179
32.65	3128
32.66	3124
32.67	3115
32.68	3109
32.69	3146
32.7	3197
32.71	3181
32.72	3134
32.73	3063
32.74	3103
32.75	3132
32.76	3137
32.77	3133
32.78	3112
32.79	3038
32.8	3148
32.81	3169
32.82	3159
32.83	3153
32.84	3117
32.85	3151
32.86	3127
32.87	3113
32.88	3091
32.89	3024
32.9	3047
32.91	3061
32.92	3090
32.93	3112
32.94	3063
32.95	2996
32.96	3018
32.97	2971
32.98	2985
32.99	3075
33.0	3083
33.01	3033
33.02	3042
33.03	3042
33.04	3063
33.05	2975
33.06	3058
33.07	3017
33.08	3040
33.09	3038
33.1	3014
33.11	2994
33.12	3002
33.13	3006
33.14	2922
33.15	2921
33.16	2969
33.17	3043
33.18	3080
33.19	2997
33.2	3039
33.21	3023
33.22	2947
33.23	2996
33.24	3004
33.25	2930
33.26	2949
33.27	3039
33.28	3094
33.29	3059
33.3	3008
33.31	2944
33.32	2929
33.33	2964
33.34	2972
33.35	2998
33.36	3043
33.37	3040
33.38	2992
33.39	2973
33.4	3005
33.41	2968
33.42	2899
33.43	2893
33.44	2923
33.45	2931
33.46	2878
33.47	2900
33.48	2939
33.49	2973
33.5	2947
33.51	2955
33.52	2959
33.53	2993
33.54	2974
33.55	2934
33.56	2900
33.57	2873
33.58	2900
33.59	2870
33.6	2847
33.61	2881
33.62	2908
33.63	2916
33.64	2934
33.65	2904
33.66	2885
33.67	2958
33.68	2953
33.69	2902
33.7	2894
33.71	2872
33.72	2864
33.73	2885
33.74	2864
33.75	2864
33.76	2897
33.77	2868
33.78	2881
33.79	2922
33.8	2845
33.81	2859
33.82	2893
33.83	2903
33.84	2917
33.85	2901
33.86	2887
33.87	2869
33.88	2839
33.89	2839
33.9	2872
33.91	2895
33.92	2882
33.93	2893
33.94	2938
33.95	2914
33.96	2857
33.97	2879
33.98	2947
33.99	2969
34.0	2945
34.01	2919
34.02	2881
34.03	2912
34.04	2879
34.05	2869
34.06	2878
34.07	2862
34.08	2885
34.09	2892
34.1	2860
34.11	2828
34.12	2808
34.13	2820
34.14	2843
34.15	2818
34.16	2798
34.17	2814
34.18	2789
34.19	2768
34.2	2793
34.21	2850
34.22	2843
34.23	2855
34.24	2860
34.25	2854
34.26	2794
34.27	2763
34.28	2823
34.29	2802
34.3	2781
34.31	2842
34.32	2856
34.33	2832
34.34	2817
34.35	2835
34.36	2841
34.37	2867
34.38	2836
34.39	2791
34.4	2785
34.41	2822
34.42	2815
34.43	2810
34.44	2838
34.45	2808
34.46	2788
34.47	2742
34.48	2764
34.49	2793
34.5	2770
34.51	2739
34.52	2784
34.53	2789
34.54	2787
34.55	2827
34.56	2860
34.57	2807
34.58	2765
34.59	2795
34.6	2801
34.61	2810
34.62	2824
34.63	2766
34.64	2749
34.65	2752
34.66	2770
34.67	2747
34.68	2728
34.69	2752
34.7	2795
34.71	2774
34.72	2768
34.73	2798
34.74	2798
34.75	2755
34.76	2728
34.77	2743
34.78	2755
34.79	2748
34.8	2738
34.81	2722
34.82	2756
34.83	2790
34.84	2754
34.85	2751
34.86	2770
34.87	2772
34.88	2719
34.89	2728
34.9	2743
34.91	2783
34.92	2775
34.93	2704
34.94	2729
34.95	2744
34.96	2732
34.97	2734
34.98	2750
34.99	2766
35.0	2771
35.01	2778
35.02	2777
35.03	2784
35.04	2848
35.05	2822
35.06	2749
35.07	2737
35.08	2744
35.09	2746
35.1	2759
35.11	2742
35.12	2730
35.13	2759
35.14	2799
35.15	2782
35.16	2765
35.17	2773
35.18	2774
35.19	2784
35.2	2771
35.21	2733
35.22	2714
35.23	2758
35.24	2807
35.25	2846
35.26	2869
35.27	2852
35.28	2768
35.29	2752
35.3	2779
35.31	2744
35.32	2723
35.33	2763
35.34	2746
35.35	2763
35.36	2837
35.37	2803
35.38	2730
35.39	2738
35.4	2829
35.41	2831
35.42	2776
35.43	2793
35.44	2819
35.45	2859
35.46	2867
35.47	2809
35.48	2806
35.49	2853
35.5	2877
35.51	2863
35.52	2814
35.53	2797
35.54	2852
35.55	2843
35.56	2857
35.57	2840
35.58	2843
35.59	2813
35.6	2798
35.61	2810
35.62	2777
35.63	2779
35.64	2825
35.65	2857
35.66	2886
35.67	2872
35.68	2882
35.69	2890
35.7	2896
35.71	2938
35.72	2905
35.73	2898
35.74	2939
35.75	2954
35.76	2901
35.77	2891
35.78	2941
35.79	2990
35.8	3006
35.81	3012
35.82	3061
35.83	3070
35.84	3020
35.85	3011
35.86	3064
35.87	3116
35.88	3134
35.89	3134
35.9	3125
35.91	3122
35.92	3160
35.93	3176
35.94	3144
35.95	3165
35.96	3159
35.97	3149
35.98	3189
35.99	3227
36.0	3238
36.01	3236
36.02	3221
36.03	3197
36.04	3225
36.05	3227
36.06	3176
36.07	3202
36.08	3237
36.09	3225
36.1	3190
36.11	3165
36.12	3172
36.13	3157
36.14	3134
36.15	3141
36.16	3126
36.17	3060
36.18	3042
36.19	3042
36.2	3046
36.21	3024
36.22	3015
36.23	3033
36.24	3005
36.25	2952
36.26	2931
36.27	2935
36.28	2921
36.29	2905
36.3	2885
36.31	2865
36.32	2870
36.33	2867
36.34	2838
36.35	2801
36.36	2810
36.37	2808
36.38	2763
36.39	2777
36.4	2824
36.41	2817
36.42	2775
36.43	2745
36.44	2749
36.45	2758
36.46	2750
36.47	2776
36.48	2806
36.49	2798
36.5	2766
36.51	2795
36.52	2839
36.53	2765
36.54	2666
36.55	2650
36.56	2691
36.57	2700
36.58	2692
36.59	2668
36.6	2649
36.61	2666
36.62	2637
36.63	2621
36.64	2640
36.65	2644
36.66	2624
36.67	2612
36.68	2653
36.69	2658
36.7	2621
36.71	2618
36.72	2599
36.73	2599
36.74	2633
36.75	2607
36.76	2589
36.77	2642
36.78	2653
36.79	2606
36.8	2612
36.81	2636
36.82	2622
36.83	2600
36.84	2626
36.85	2641
36.86	2608
36.87	2594
36.88	2581
36.89	2588
36.9	2595
36.91	2606
36.92	2640
36.93	2673
36.94	2629
36.95	2588
36.96	2625
36.97	2630
36.98	2607
36.99	2607
37.0	2633
37.01	2659
37.02	2624
37.03	2579
37.04	2565
37.05	2603
37.06	2594
37.07	2560
37.08	2550
37.09	2536
37.1	2556
37.11	2594
37.12	2627
37.13	2604
37.14	2556
37.15	2569
37.16	2618
37.17	2578
37.18	2500
37.19	2517
37.2	2592
37.21	2563
37.22	2507
37.23	2503
37.24	2493
37.25	2488
37.26	2503
37.27	2535
37.28	2522
37.29	2494
37.3	2512
37.31	2532
37.32	2477
37.33	2439
37.34	2442
37.35	2451
37.36	2426
37.37	2444
37.38	2456
37.39	2428
37.4	2436
37.41	2472
37.42	2464
37.43	2440
37.44	2383
37.45	2406
37.46	2435
37.47	2388
37.48	2392
37.49	2448
37.5	2478
37.51	2458
37.52	2435
37.53	2388
37.54	2371
37.55	2409
37.56	2449
37.57	2475
37.58	2463
37.59	2445
37.6	2458
37.61	2463
37.62	2467
37.63	2412
37.64	2411
37.65	2462
37.66	2444
37.67	2452
37.68	2438
37.69	2436
37.7	2453
37.71	2450
37.72	2443
37.73	2456
37.74	2404
37.75	2402
37.76	2464
37.77	2472
37.78	2444
37.79	2430
37.8	2404
37.81	2420
37.82	2418
37.83	2405
37.84	2411
37.85	2432
37.86	2425
37.87	2436
37.88	2458
37.89	2457
37.9	2458
37.91	2457
37.92	2456
37.93	2422
37.94	2430
37.95	2425
37.96	2385
37.97	2384
37.98	2437
37.99	2435
38.0	2421
38.01	2459
38.02	2457
38.03	2424
38.04	2436
38.05	2432
38.06	2356
38.07	2315
38.08	2349
38.09	2372
38.1	2356
38.11	2306
38.12	2341
38.13	2393
38.14	2334
38.15	2305
38.16	2346
38.17	2333
38.18	2299
38.19	2257
38.2	2314
38.21	2346
38.22	2302
38.23	2319
38.24	2336
38.25	2280
38.26	2269
38.27	2267
38.28	2279
38.29	2292
38.3	2278
38.31	2269
38.32	2276
38.33	2245
38.34	2231
38.35	2209
38.36	2197
38.37	2214
38.38	2247
38.39	2244
38.4	2216
38.41	2209
38.42	2213
38.43	2253
38.44	2246
38.45	2188
38.46	2178
38.47	2184
38.48	2174
38.49	2178
38.5	2190
38.51	2213
38.52	2174
38.53	2162
38.54	2195
38.55	2216
38.56	2239
38.57	2273
38.58	2259
38.59	2209
38.6	2215
38.61	2237
38.62	2226
38.63	2200
38.64	2250
38.65	2264
38.66	2276
38.67	2239
38.68	2191
38.69	2187
38.7	2206
38.71	2176
38.72	2190
38.73	2196
38.74	2174
38.75	2206
38.76	2222
38.77	2185
38.78	2172
38.79	2179
38.8	2183
38.81	2174
38.82	2166
38.83	2186
38.84	2257
38.85	2216
38.86	2163
38.87	2152
38.88	2169
38.89	2145
38.9	2164
38.91	2215
38.92	2169
38.93	2140
38.94	2147
38.95	2174
38.96	2192
38.97	2218
38.98	2189
38.99	2117
39.0	2095
39.01	2114
39.02	2178
39.03	2204
39.04	2175
39.05	2142
39.06	2111
39.07	2121
39.08	2152
39.09	2170
39.1	2137
39.11	2096
39.12	2059
39.13	2056
39.14	2141
39.15	2169
39.16	2175
39.17	2133
39.18	2047
39.19	2081
39.2	2072
39.21	2082
39.22	2101
39.23	2124
39.24	2141
39.25	2120
39.26	2102
39.27	2160
39.28	2180
39.29	2135
39.3	2089
39.31	2115
39.32	2112
39.33	2110
39.34	2092
39.35	2082
39.36	2095
39.37	2087
39.38	2082
39.39	2106
39.4	2134
39.41	2128
39.42	2128
39.43	2105
39.44	2131
39.45	2204
39.46	2148
39.47	2131
39.48	2173
39.49	2133
39.5	2083
39.51	2072
39.52	2094
39.53	2080
39.54	2073
39.55	2140
39.56	2142
39.57	2110
39.58	2109
39.59	2103
39.6	2101
39.61	2093
39.62	2086
39.63	2096
39.64	2104
39.65	2088
39.66	2116
39.67	2116
39.68	2096
39.69	2124
39.7	2137
39.71	2080
39.72	2063
39.73	2064
39.74	2110
39.75	2159
39.76	2115
39.77	2091
39.78	2128
39.79	2132
39.8	2127
39.81	2080
39.82	2079
39.83	2099
39.84	2082
39.85	2098
39.86	2102
39.87	2066
39.88	2071
39.89	2026
39.9	2040
39.91	2067
39.92	2104
39.93	2091
39.94	2102
39.95	2113
39.96	2091
39.97	2116
39.98	2128
39.99	2081
40.0	2073
40.01	2124
40.02	2071
40.03	2080
40.04	2057
40.05	2113
40.06	2119
40.07	2120
40.08	2057
40.09	2084
40.1	2057
40.11	2065
40.12	2037
40.13	2041
40.14	2049
40.15	2033
40.16	2004
40.17	2015
40.18	2035
40.19	2030
40.2	2007
40.21	2020
40.22	2021
40.23	2023
40.24	2033
40.25	2034
40.26	2041
40.27	2060
40.28	2084
40.29	2071
40.3	2011
40.31	2001
40.32	2043
40.33	2062
40.34	2064
40.35	2097
40.36	2075
40.37	2059
40.38	2053
40.39	2037
40.4	2044
40.41	2011
40.42	2042
40.43	2052
40.44	2036
40.45	1986
40.46	2000
40.47	2028
40.48	2047
40.49	2049
40.5	2038
40.51	1990
40.52	1980
40.53	2070
40.54	2075
40.55	2027
40.56	1994
40.57	1990
40.58	2045
40.59	2045
40.6	2038
40.61	2025
40.62	2077
40.63	2086
40.64	2066
40.65	2072
40.66	2055
40.67	2051
40.68	2047
40.69	2002
40.7	1990
40.71	1982
40.72	2012
40.73	2054
40.74	2020
40.75	2019
40.76	2047
40.77	2099
40.78	2092
40.79	2041
40.8	2015
40.81	2042
40.82	2070
40.83	2030
40.84	1995
40.85	2007
40.86	2032
40.87	2042
40.88	2067
40.89	2039
40.9	2048
40.91	2099
40.92	2019
40.93	2016
40.94	2020
40.95	2041
40.96	2094
40.97	2094
40.98	2062
40.99	2031
41.0	2027
41.01	2063
41.02	2064
41.03	2048
41.04	2002
41.05	2027
41.06	2093
41.07	1995
41.08	2014
41.09	2023
41.1	2047
41.11	2090
41.12	2074
41.13	1977
41.14	1983
41.15	2030
41.16	2048
41.17	2027
41.18	2012
41.19	2027
41.2	2054
41.21	2046
41.22	2056
41.23	2051
41.24	2002
41.25	2067
41.26	2073
41.27	2045
41.28	2002
41.29	2047
41.3	2037
41.31	2035
41.32	2064
41.33	2062
41.34	2029
41.35	2056
41.36	2109
41.37	2062
41.38	1983
41.39	1988
41.4	1975
41.41	1970
41.42	1974
41.43	2026
41.44	2045
41.45	1992
41.46	2037
41.47	2039
41.48	2027
41.49	2008
41.5	2050
41.51	2033
41.52	1979
41.53	2019
41.54	2110
41.55	2042
41.56	1998
41.57	2069
41.58	2061
41.59	2068
41.6	2030
41.61	2032
41.62	2057
41.63	2072
41.64	2081
41.65	2045
41.66	2007
41.67	2044
41.68	2054
41.69	2097
41.7	2046
41.71	2072
41.72	1999
41.73	2029
41.74	2076
41.75	2029
41.76	2014
41.77	2039
41.78	2062
41.79	2037
41.8	2044
41.81	2030
41.82	1992
41.83	2024
41.84	2011
41.85	2011
41.86	2058
41.87	2127
41.88	2111
41.89	2034
41.9	1969
41.91	2004
41.92	2045
41.93	2000
41.94	2013
41.95	2012
41.96	2012
41.97	2021
41.98	2012
41.99	2031
42.0	2044
42.01	2063
42.02	2059
42.03	2024
42.04	2060
42.05	2049
42.06	2003
42.07	1997
42.08	2075
42.09	2060
42.1	2147
42.11	2094
42.12	2073
42.13	2093
42.14	2098
42.15	2051
42.16	2099
42.17	2060
42.18	2109
42.19	2132
42.2	2104
42.21	2119
42.22	2157
42.23	2105
42.24	2045
42.25	2087
42.26	2067
42.27	2045
42.28	2036
42.29	2098
42.3	2003
42.31	2063
42.32	2073
42.33	2057
42.34	2027
42.35	2094
42.36	2049
42.37	2085
42.38	2086
42.39	2080
42.4	2048
42.41	2081
42.42	2076
42.43	2068
42.44	2057
42.45	2110
42.46	2117
42.47	2060
42.48	2061
42.49	2108
42.5	2152
42.51	2090
42.52	2064
42.53	2095
42.54	2124
42.55	2050
42.56	2109
42.57	2094
42.58	2030
42.59	2082
42.6	2051
42.61	2058
42.62	2104
42.63	2072
42.64	2107
42.65	2122
42.66	2117
42.67	2113
42.68	2122
42.69	2145
42.7	2097
42.71	2128
42.72	2143
42.73	2119
42.74	2092
42.75	2088
42.76	2094
42.77	2098
42.78	2045
42.79	2081
42.8	2063
42.81	2100
42.82	2114
42.83	2079
42.84	2127
42.85	2123
42.86	2144
42.87	2191
42.88	2153
42.89	2150
42.9	2156
42.91	2168
42.92	2136
42.93	2193
42.94	2171
42.95	2182
42.96	2197
42.97	2140
42.98	2195
42.99	2204
43.0	2220
43.01	2183
43.02	2239
43.03	2221
43.04	2160
43.05	2163
43.06	2233
43.07	2317
43.08	2309
43.09	2304
43.1	2304
43.11	2315
43.12	2376
43.13	2347
43.14	2357
43.15	2379
43.16	2402
43.17	2422
43.18	2459
43.19	2475
43.2	2490
43.21	2502
43.22	2530
43.23	2569
43.24	2554
43.25	2662
43.26	2668
43.27	2633
43.28	2603
43.29	2748
43.3	2810
43.31	2828
43.32	2891
43.33	2928
43.34	2935
43.35	2952
43.36	3065
43.37	3112
43.38	3168
43.39	3142
43.4	3299
43.41	3474
43.42	3578
43.43	3626
43.44	3731
43.45	3807
43.46	3889
43.47	4018
43.48	4155
43.49	4231
43.5	4475
43.51	4643
43.52	4733
43.53	4860
43.54	5106
43.55	5369
43.56	5579
43.57	5680
43.58	5965
43.59	6208
43.6	6466
43.61	6621
43.62	6942
43.63	7139
43.64	7521
43.65	7602
43.66	7832
43.67	8010
43.68	8330
43.69	8384
43.7	8411
43.71	8458
43.72	8590
43.73	8648
43.74	8727
43.75	8819
43.76	8743
43.77	8568
43.78	8494
43.79	8367
43.8	8120
43.81	7927
43.82	7850
43.83	7653
43.84	7413
43.85	7197
43.86	6931
43.87	6627
43.88	6409
43.89	6203
43.9	6027
43.91	5829
43.92	5664
43.93	5319
43.94	5107
43.95	4971
43.96	4714
43.97	4518
43.98	4390
43.99	4239
44.0	4033
44.01	3883
44.02	3748
44.03	3624
44.04	3572
44.05	3515
44.06	3446
44.07	3337
44.08	3222
44.09	3126
44.1	3001
44.11	2957
44.12	2875
44.13	2819
44.14	2798
44.15	2808
44.16	2741
44.17	2648
44.18	2612
44.19	2630
44.2	2649
44.21	2574
44.22	2487
44.23	2467
44.24	2482
44.25	2444
44.26	2400
44.27	2391
44.28	2328
44.29	2350
44.3	2336
44.31	2313
44.32	2287
44.33	2253
44.34	2236
44.35	2189
44.36	2187
44.37	2202
44.38	2179
44.39	2137
44.4	2099
44.41	2097
44.42	2138
44.43	2178
44.44	2116
44.45	2051
44.46	2104
44.47	2052
44.48	2047
44.49	2074
44.5	2030
44.51	1983
44.52	2005
44.53	2040
44.54	2036
44.55	2011
44.56	1989
44.57	1970
44.58	1975
44.59	2008
44.6	2033
44.61	2016
44.62	1966
44.63	1943
44.64	1913
44.65	1924
44.66	1930
44.67	1940
44.68	1952
44.69	1990
44.7	1939
44.71	1907
44.72	1905
44.73	1938
44.74	1945
44.75	1930
44.76	1888
44.77	1853
44.78	1836
44.79	1868
44.8	1898
44.81	1898
44.82	1883
44.83	1845
44.84	1837
44.85	1824
44.86	1844
44.87	1860
44.88	1865
44.89	1913
44.9	1939
44.91	1898
44.92	1892
44.93	1868
44.94	1845
44.95	1834
44.96	1815
44.97	1808
44.98	1822
44.99	1842
45.0	1829
45.01	1829
45.02	1840
45.03	1884
45.04	1838
45.05	1822
45.06	1838
45.07	1822
45.08	1800
45.09	1853
45.1	1887
45.11	1866
45.12	1802
45.13	1795
45.14	1830
45.15	1845
45.16	1796
45.17	1813
45.18	1857
45.19	1829
45.2	1812
45.21	1825
45.22	1824
45.23	1825
45.24	1847
45.25	1848
45.26	1809
45.27	1803
45.28	1789
45.29	1801
45.3	1809
45.31	1828
45.32	1794
45.33	1792
45.34	1800
45.35	1811
45.36	1801
45.37	1781
45.38	1787
45.39	1788
45.4	1816
45.41	1831
45.42	1840
45.43	1826
45.44	1819
45.45	1833
45.46	1829
45.47	1816
45.48	1780
45.49	1764
45.5	1796
45.51	1815
45.52	1798
45.53	1762
45.54	1761
45.55	1804
45.56	1810
45.57	1791
45.58	1754
45.59	1793
45.6	1803
45.61	1810
45.62	1783
45.63	1768
45.64	1782
45.65	1730
45.66	1749
45.67	1807
45.68	1841
45.69	1799
45.7	1795
45.71	1782
45.72	1727
45.73	1716
45.74	1744
45.75	1797
45.76	1797
45.77	1808
45.78	1835
45.79	1787
45.8	1764
45.81	1796
45.82	1807
45.83	1784
45.84	1790
45.85	1777
45.86	1755
45.87	1774
45.88	1797
45.89	1801
45.9	1795
45.91	1775
45.92	1769
45.93	1758
45.94	1812
45.95	1769
45.96	1708
45.97	1718
45.98	1749
45.99	1778
46.0	1792
46.01	1821
46.02	1798
46.03	1766
46.04	1756
46.05	1741
46.06	1771
46.07	1781
46.08	1761
46.09	1751
46.1	1765
46.11	1775
46.12	1766
46.13	1714
46.14	1704
46.15	1730
46.16	1762
46.17	1741
46.18	1751
46.19	1747
46.2	1731
46.21	1731
46.22	1733
46.23	1759
46.24	1768
46.25	1738
46.26	1736
46.27	1722
46.28	1711
46.29	1718
46.3	1710
46.31	1733
46.32	1726
46.33	1724
46.34	1755
46.35	1781
46.36	1779
46.37	1741
46.38	1746
46.39	1759
46.4	1732
46.41	1755
46.42	1757
46.43	1730
46.44	1700
46.45	1719
46.46	1720
46.47	1743
46.48	1759
46.49	1731
46.5	1734
46.51	1761
46.52	1776
46.53	1749
46.54	1710
46.55	1669
46.56	1661
46.57	1705
46.58	1768
46.59	1796
46.6	1772
46.61	1732
46.62	1703
46.63	1716
46.64	1712
46.65	1734
46.66	1750
46.67	1719
46.68	1724
46.69	1748
46.7	1753
46.71	1734
46.72	1728
46.73	1715
46.74	1721
46.75	1726
46.76	1747
46.77	1754
46.78	1692
46.79	1662
46.8	1708
46.81	1763
46.82	1777
46.83	1759
46.84	1752
46.85	1760
46.86	1747
46.87	1735
46.88	1747
46.89	1749
46.9	1727
46.91	1739
46.92	1743
46.93	1741
46.94	1752
46.95	1752
46.96	1760
46.97	1764
46.98	1781
46.99	1757
47.0	1758
47.01	1748
47.02	1700
47.03	1712
47.04	1739
47.05	1753
47.06	1776
47.07	1753
47.08	1675
47.09	1674
47.1	1727
47.11	1746
47.12	1723
47.13	1730
47.14	1722
47.15	1693
47.16	1697
47.17	1714
47.18	1762
47.19	1769
47.2	1763
47.21	1762
47.22	1733
47.23	1710
47.24	1716
47.25	1725
47.26	1728
47.27	1716
47.28	1714
47.29	1772
47.3	1790
47.31	1750
47.32	1727
47.33	1729
47.34	1738
47.35	1758
47.36	1738
47.37	1734
47.38	1763
47.39	1753
47.4	1746
47.41	1777
47.42	1755
47.43	1754
47.44	1770
47.45	1751
47.46	1714
47.47	1710
47.48	1763
47.49	1785
47.5	1752
47.51	1728
47.52	1737
47.53	1720
47.54	1738
47.55	1775
47.56	1788
47.57	1788
47.58	1772
47.59	1776
47.6	1753
47.61	1755
47.62	1793
47.63	1790
47.64	1792
47.65	1804
47.66	1835
47.67	1812
47.68	1761
47.69	1756
47.7	1819
47.71	1860
47.72	1874
47.73	1864
47.74	1867
47.75	1901
47.76	1912
47.77	1920
47.78	1951
47.79	1932
47.8	1912
47.81	1922
47.82	1932
47.83	1893
47.84	1862
47.85	1895
47.86	1897
47.87	1910
47.88	1930
47.89	1931
47.9	1860
47.91	1848
47.92	1868
47.93	1849
47.94	1882
47.95	1889
47.96	1861
47.97	1886
47.98	1916
47.99	1909
48.0	1918
48.01	1947
48.02	1935
48.03	1956
48.04	1972
48.05	1955
48.06	1949
48.07	1943
48.08	1960
48.09	1969
48.1	1977
48.11	2002
48.12	1998
48.13	1992
48.14	2009
48.15	2053
48.16	2040
48.17	2008
48.18	1989
48.19	1986
48.2	1991
48.21	1974
48.22	1971
48.23	1970
48.24	1942
48.25	1937
48.26	1931
48.27	1950
48.28	1958
48.29	1900
48.3	1879
48.31	1872
48.32	1848
48.33	1856
48.34	1856
48.35	1823
48.36	1792
48.37	1804
48.38	1842
48.39	1859
48.4	1853
48.41	1856
48.42	1833
48.43	1795
48.44	1763
48.45	1747
48.46	1732
48.47	1727
48.48	1741
48.49	1708
48.5	1690
48.51	1714
48.52	1710
48.53	1665
48.54	1663
48.55	1697
48.56	1712
48.57	1718
48.58	1720
48.59	1682
48.6	1642
48.61	1652
48.62	1691
48.63	1666
48.64	1642
48.65	1657
48.66	1657
48.67	1679
48.68	1716
48.69	1726
48.7	1729
48.71	1753
48.72	1744
48.73	1669
48.74	1627
48.75	1656
48.76	1687
48.77	1688
48.78	1662
48.79	1655
48.8	1667
48.81	1669
48.82	1681
48.83	1672
48.84	1671
48.85	1684
48.86	1692
48.87	1697
48.88	1696
48.89	1708
48.9	1718
48.91	1705
48.92	1689
48.93	1698
48.94	1687
48.95	1642
48.96	1644
48.97	1657
48.98	1644
48.99	1632
49.0	1636
49.01	1608
49.02	1583
49.03	1608
49.04	1652
49.05	1680
49.06	1675
49.07	1647
49.08	1619
49.09	1602
49.1	1598
49.11	1597
49.12	1601
49.13	1605
49.14	1603
49.15	1613
49.16	1624
49.17	1627
49.18	1624
49.19	1619
49.2	1621
49.21	1608
49.22	1588
49.23	1593
49.24	1607
49.25	1599
49.26	1609
49.27	1621
49.28	1620
49.29	1618
49.3	1588
49.31	1564
49.32	1587
49.33	1594
49.34	1599
49.35	1585
49.36	1569
49.37	1571
49.38	1586
49.39	1590
49.4	1593
49.41	1599
49.42	1577
49.43	1602
49.44	1667
49.45	1650
49.46	1573
49.47	1557
49.48	1579
49.49	1624
49.5	1630
49.51	1621
49.52	1592
49.53	1589
49.54	1597
49.55	1556
49.56	1549
49.57	1555
49.58	1600
49.59	1597
49.6	1574
49.61	1600
49.62	1621
49.63	1595
49.64	1552
49.65	1553
49.66	1577
49.67	1590
49.68	1586
49.69	1570
49.7	1572
49.71	1575
49.72	1539
49.73	1523
49.74	1551
49.75	1559
49.76	1579
49.77	1603
49.78	1578
49.79	1547
49.8	1541
49.81	1541
49.82	1532
49.83	1539
49.84	1569
49.85	1542
49.86	1511
49.87	1537
49.88	1560
49.89	1556
49.9	1540
49.91	1549
49.92	1567
49.93	1546
49.94	1523
49.95	1516
49.96	1532
49.97	1535
49.98	1533
49.99	1576
50.0	1564
50.01	1540
50.02	1542
50.03	1527
50.04	1533
50.05	1547
50.06	1531
50.07	1499
50.08	1490
50.09	1492
50.1	1511
50.11	1541
50.12	1549
50.13	1573
50.14	1577
50.15	1559
50.16	1525
50.17	1519
50.18	1542
50.19	1555
50.2	1555
50.21	1537
50.22	1537
50.23	1520
50.24	1531
50.25	1559
50.26	1525
50.27	1523
50.28	1552
50.29	1541
50.3	1521
50.31	1538
50.32	1556
50.33	1545
50.34	1537
50.35	1524
50.36	1513
50.37	1499
50.38	1483
50.39	1503
50.4	1514
50.41	1546
50.42	1575
50.43	1553
50.44	1506
50.45	1501
50.46	1530
50.47	1521
50.48	1523
50.49	1531
50.5	1529
50.51	1539
50.52	1529
50.53	1517
50.54	1515
50.55	1491
50.56	1477
50.57	1479
50.58	1471
50.59	1495
50.6	1524
50.61	1510
50.62	1462
50.63	1455
50.64	1499
50.65	1504
50.66	1487
50.67	1512
50.68	1541
50.69	1508
50.7	1488
50.71	1486
50.72	1466
50.73	1469
50.74	1480
50.75	1485
50.76	1520
50.77	1517
50.78	1485
50.79	1475
50.8	1499
50.81	1517
50.82	1492
50.83	1476
50.84	1473
50.85	1497
50.86	1524
50.87	1514
50.88	1475
50.89	1472
50.9	1494
50.91	1498
50.92	1496
50.93	1468
50.94	1449
50.95	1462
50.96	1469
50.97	1451
50.98	1437
50.99	1449
51.0	1473
51.01	1455
51.02	1440
51.03	1432
51.04	1418
51.05	1423
51.06	1432
51.07	1475
51.08	1474
51.09	1437
51.1	1429
51.11	1461
51.12	1504
51.13	1515
51.14	1503
51.15	1476
51.16	1457
51.17	1456
51.18	1448
51.19	1466
51.2	1492
51.21	1472
51.22	1441
51.23	1445
51.24	1474
51.25	1483
51.26	1464
51.27	1444
51.28	1435
51.29	1434
51.3	1455
51.31	1467
51.32	1433
51.33	1430
51.34	1443
51.35	1427
51.36	1421
51.37	1435
51.38	1458
51.39	1473
51.4	1455
51.41	1416
51.42	1421
51.43	1449
51.44	1466
51.45	1455
51.46	1455
51.47	1481
51.48	1461
51.49	1450
51.5	1450
51.51	1451
51.52	1448
51.53	1441
51.54	1428
51.55	1406
51.56	1418
51.57	1452
51.58	1454
51.59	1420
51.6	1421
51.61	1445
51.62	1450
51.63	1439
51.64	1415
51.65	1444
51.66	1452
51.67	1411
51.68	1434
51.69	1446
51.7	1423
51.71	1406
51.72	1423
51.73	1442
51.74	1441
51.75	1438
51.76	1441
51.77	1432
51.78	1420
51.79	1418
51.8	1392
51.81	1379
51.82	1405
51.83	1404
51.84	1409
51.85	1431
51.86	1453
51.87	1477
51.88	1454
51.89	1428
51.9	1424
51.91	1435
51.92	1426
51.93	1395
51.94	1400
51.95	1419
51.96	1409
51.97	1406
51.98	1431
51.99	1445
52.0	1433
52.01	1419
52.02	1395
52.03	1387
52.04	1423
52.05	1434
52.06	1424
52.07	1433
52.08	1444
52.09	1454
52.1	1457
52.11	1440
52.12	1444
52.13	1457
52.14	1421
52.15	1392
52.16	1400
52.17	1417
52.18	1388
52.19	1383
52.2	1421
52.21	1447
52.22	1454
52.23	1452
52.24	1418
52.25	1389
52.26	1375
52.27	1372
52.28	1408
52.29	1430
52.3	1417
52.31	1416
52.32	1425
52.33	1410
52.34	1400
52.35	1429
52.36	1435
52.37	1432
52.38	1389
52.39	1385
52.4	1442
52.41	1438
52.42	1401
52.43	1401
52.44	1412
52.45	1398
52.46	1370
52.47	1369
52.48	1406
52.49	1423
52.5	1416
52.51	1438
52.52	1434
52.53	1390
52.54	1374
52.55	1393
52.56	1418
52.57	1423
52.58	1392
52.59	1394
52.6	1406
52.61	1409
52.62	1384
52.63	1363
52.64	1391
52.65	1430
52.66	1423
52.67	1414
52.68	1429
52.69	1420
52.7	1427
52.71	1395
52.72	1373
52.73	1385
52.74	1396
52.75	1436
52.76	1426
52.77	1378
52.78	1363
52.79	1398
52.8	1407
52.81	1406
52.82	1418
52.83	1409
52.84	1399
52.85	1398
52.86	1411
52.87	1427
52.88	1401
52.89	1377
52.9	1375
52.91	1405
52.92	1403
52.93	1369
52.94	1380
52.95	1406
52.96	1404
52.97	1395
52.98	1391
52.99	1402
53.0	1401
53.01	1402
53.02	1431
53.03	1419
53.04	1389
53.05	1391
53.06	1438
53.07	1468
53.08	1441
53.09	1392
53.1	1420
53.11	1435
53.12	1367
53.13	1350
53.14	1369
53.15	1392
53.16	1387
53.17	1398
53.18	1419
53.19	1405
53.2	1385
53.21	1357
53.22	1346
53.23	1365
53.24	1392
53.25	1395
53.26	1398
53.27	1393
53.28	1387
53.29	1417
53.3	1428
53.31	1380
53.32	1358
53.33	1366
53.34	1373
53.35	1383
53.36	1353
53.37	1341
53.38	1371
53.39	1362
53.4	1348
53.41	1377
53.42	1366
53.43	1345
53.44	1349
53.45	1354
53.46	1376
53.47	1368
53.48	1355
53.49	1356
53.5	1372
53.51	1369
53.52	1350
53.53	1340
53.54	1352
53.55	1374
53.56	1394
53.57	1415
53.58	1412
53.59	1394
53.6	1391
53.61	1423
53.62	1429
53.63	1435
53.64	1398
53.65	1350
53.66	1352
53.67	1387
53.68	1378
53.69	1341
53.7	1355
53.71	1409
53.72	1409
53.73	1377
53.74	1382
53.75	1381
53.76	1390
53.77	1379
53.78	1380
53.79	1403
53.8	1414
53.81	1442
53.82	1465
53.83	1413
53.84	1363
53.85	1405
53.86	1408
53.87	1397
53.88	1425
53.89	1414
53.9	1432
53.91	1498
53.92	1485
53.93	1426
53.94	1414
53.95	1447
53.96	1462
53.97	1471
53.98	1475
53.99	1429
54.0	1438
54.01	1478
54.02	1484
54.03	1469
54.04	1479
54.05	1470
54.06	1481
54.07	1511
54.08	1504
54.09	1493
54.1	1498
54.11	1491
54.12	1495
54.13	1548
54.14	1565
54.15	1533
54.16	1517
54.17	1526
54.18	1511
54.19	1511
54.2	1529
54.21	1513
54.22	1511
54.23	1493
54.24	1493
54.25	1498
54.26	1457
54.27	1471
54.28	1485
54.29	1466
54.3	1420
54.31	1405
54.32	1422
54.33	1437
54.34	1413
54.35	1372
54.36	1370
54.37	1396
54.38	1386
54.39	1402
54.4	1401
54.41	1396
54.42	1420
54.43	1450
54.44	1434
54.45	1411
54.46	1377
54.47	1412
54.48	1410
54.49	1380
54.5	1394
54.51	1408
54.52	1394
54.53	1361
54.54	1368
54.55	1378
54.56	1373
54.57	1364
54.58	1363
54.59	1387
54.6	1411
54.61	1408
54.62	1409
54.63	1398
54.64	1334
54.65	1326
54.66	1337
54.67	1357
54.68	1415
54.69	1406
54.7	1367
54.71	1376
54.72	1381
54.73	1379
54.74	1387
54.75	1372
54.76	1344
54.77	1368
54.78	1402
54.79	1392
54.8	1364
54.81	1380
54.82	1391
54.83	1355
54.84	1340
54.85	1368
54.86	1378
54.87	1415
54.88	1414
54.89	1390
54.9	1398
54.91	1395
54.92	1391
54.93	1395
54.94	1417
54.95	1432
54.96	1415
54.97	1392
54.98	1379
54.99	1400
55.0	1399
55.01	1394
55.02	1427
55.03	1457
55.04	1448
55.05	1419
55.06	1441
55.07	1476
55.08	1453
55.09	1464
55.1	1478
55.11	1479
55.12	1514
55.13	1523
55.14	1505
55.15	1495
55.16	1485
55.17	1473
55.18	1488
55.19	1507
55.2	1519
55.21	1515
55.22	1511
55.23	1517
55.24	1516
55.25	1509
55.26	1539
55.27	1544
55.28	1527
55.29	1568
55.3	1562
55.31	1537
55.32	1541
55.33	1569
55.34	1574
55.35	1536
55.36	1506
55.37	1488
55.38	1477
55.39	1483
55.4	1504
55.41	1512
55.42	1495
55.43	1494
55.44	1473
55.45	1441
55.46	1450
55.47	1485
55.48	1480
55.49	1470
55.5	1464
55.51	1451
55.52	1484
55.53	1467
55.54	1423
55.55	1403
55.56	1400
55.57	1421
55.58	1444
55.59	1435
55.6	1442
55.61	1432
55.62	1434
55.63	1438
55.64	1403
55.65	1400
55.66	1427
55.67	1436
55.68	1403
55.69	1358
55.7	1386
55.71	1426
55.72	1403
55.73	1326
55.74	1369
55.75	1394
55.76	1390
55.77	1397
55.78	1380
55.79	1376
55.8	1410
55.81	1417
55.82	1408
55.83	1421
55.84	1381
55.85	1358
55.86	1379
55.87	1367
55.88	1368
55.89	1358
55.9	1347
55.91	1334
55.92	1328
55.93	1349
55.94	1383
55.95	1406
55.96	1395
55.97	1373
55.98	1394
55.99	1408
56.0	1387
56.01	1369
56.02	1356
56.03	1342
56.04	1355
56.05	1380
56.06	1382
56.07	1383
56.08	1386
56.09	1374
56.1	1360
56.11	1365
56.12	1396
56.13	1382
56.14	1381
56.15	1374
56.16	1366
56.17	1388
56.18	1394
56.19	1377
56.2	1342
56.21	1328
56.22	1367
56.23	1377
56.24	1368
56.25	1354
56.26	1334
56.27	1352
56.28	1387
56.29	1374
56.3	1364
56.31	1358
56.32	1377
56.33	1341
56.34	1358
56.35	1390
56.36	1371
56.37	1366
56.38	1368
56.39	1365
56.4	1352
56.41	1330
56.42	1331
56.43	1351
56.44	1344
56.45	1310
56.46	1320
56.47	1373
56.48	1381
56.49	1374
56.5	1388
56.51	1363
56.52	1317
56.53	1309
56.54	1335
56.55	1342
56.56	1358
56.57	1342
56.58	1346
56.59	1331
56.6	1331
56.61	1356
56.62	1370
56.63	1389
56.64	1374
56.65	1336
56.66	1344
56.67	1359
56.68	1362
56.69	1368
56.7	1380
56.71	1371
56.72	1372
56.73	1364
56.74	1360
56.75	1365
56.76	1349
56.77	1349
56.78	1388
56.79	1394
56.8	1383
56.81	1413
56.82	1393
56.83	1360
56.84	1355
56.85	1374
56.86	1373
56.87	1361
56.88	1377
56.89	1387
56.9	1377
56.91	1364
56.92	1352
56.93	1347
56.94	1327
56.95	1359
56.96	1376
56.97	1380
56.98	1389
56.99	1401
57.0	1430
57.01	1396
57.02	1380
57.03	1376
57.04	1377
57.05	1380
57.06	1377
57.07	1384
57.08	1390
57.09	1358
57.1	1356
57.11	1385
57.12	1389
57.13	1353
57.14	1345
57.15	1351
57.16	1371
57.17	1418
57.18	1411
57.19	1400
57.2	1418
57.21	1397
57.22	1382
57.23	1408
57.24	1405
57.25	1440
57.26	1481
57.27	1446
57.28	1425
57.29	1416
57.3	1412
57.31	1419
57.32	1438
57.33	1395
57.34	1375
57.35	1428
57.36	1435
57.37	1437
57.38	1442
57.39	1445
57.4	1439
57.41	1423
57.42	1428
57.43	1465
57.44	1455
57.45	1450
57.46	1485
57.47	1494
57.48	1490
57.49	1462
57.5	1463
57.51	1472
57.52	1504
57.53	1547
57.54	1497
57.55	1508
57.56	1528
57.57	1521
57.58	1547
57.59	1557
57.6	1567
57.61	1567
57.62	1580
57.63	1618
57.64	1609
57.65	1577
57.66	1596
57.67	1609
57.68	1597
57.69	1579
57.7	1551
57.71	1546
57.72	1584
57.73	1605
57.74	1600
57.75	1621
57.76	1638
57.77	1626
57.78	1610
57.79	1607
57.8	1591
57.81	1605
57.82	1594
57.83	1551
57.84	1539
57.85	1563
57.86	1574
57.87	1579
57.88	1539
57.89	1532
57.9	1513
57.91	1490
57.92	1516
57.93	1530
57.94	1522
57.95	1494
57.96	1504
57.97	1489
57.98	1489
57.99	1476
58.0	1472
58.01	1445
58.02	1399
58.03	1444
58.04	1451
58.05	1437
58.06	1464
58.07	1432
58.08	1362
58.09	1376
58.1	1398
58.11	1406
58.12	1414
58.13	1386
58.14	1339
58.15	1337
58.16	1374
58.17	1374
58.18	1412
58.19	1413
58.2	1360
58.21	1361
58.22	1353
58.23	1360
58.24	1397
58.25	1388
58.26	1373
58.27	1361
58.28	1351
58.29	1341
58.3	1350
58.31	1354
58.32	1320
58.33	1352
58.34	1362
58.35	1365
58.36	1353
58.37	1349
58.38	1353
58.39	1354
58.4	1317
58.41	1303
58.42	1319
58.43	1319
58.44	1315
58.45	1290
58.46	1306
58.47	1310
58.48	1299
58.49	1290
58.5	1310
58.51	1324
58.52	1332
58.53	1337
58.54	1355
58.55	1328
58.56	1287
58.57	1266
58.58	1251
58.59	1279
58.6	1309
58.61	1356
58.62	1365
58.63	1313
58.64	1275
58.65	1324
58.66	1337
58.67	1332
58.68	1311
58.69	1267
58.7	1277
58.71	1268
58.72	1279
58.73	1266
58.74	1265
58.75	1302
58.76	1290
58.77	1285
58.78	1287
58.79	1294
58.8	1282
58.81	1281
58.82	1282
58.83	1258
58.84	1267
58.85	1262
58.86	1279
58.87	1317
58.88	1339
58.89	1345
58.9	1368
58.91	1366
58.92	1315
58.93	1286
58.94	1258
58.95	1296
58.96	1313
58.97	1289
58.98	1221
58.99	1231
59.0	1248
59.01	1247
59.02	1254
59.03	1278
59.04	1275
59.05	1280
59.06	1263
59.07	1240
59.08	1273
59.09	1238
59.1	1188
59.11	1205
59.12	1252
59.13	1263
59.14	1251
59.15	1234
59.16	1252
59.17	1242
59.18	1271
59.19	1273
59.2	1285
59.21	1258
59.22	1215
59.23	1239
59.24	1275
59.25	1243
59.26	1238
59.27	1257
59.28	1265
59.29	1271
59.3	1244
59.31	1236
59.32	1219
59.33	1210
59.34	1227
59.35	1226
59.36	1226
59.37	1270
59.38	1269
59.39	1242
59.4	1256
59.41	1229
59.42	1214
59.43	1231
59.44	1242
59.45	1255
59.46	1284
59.47	1258
59.48	1232
59.49	1248
59.5	1256
59.51	1266
59.52	1267
59.53	1255
59.54	1205
59.55	1222
59.56	1252
59.57	1264
59.58	1224
59.59	1209
59.6	1251
59.61	1253
59.62	1236
59.63	1237
59.64	1267
59.65	1253
59.66	1200
59.67	1214
59.68	1240
59.69	1225
59.7	1245
59.71	1269
59.72	1242
59.73	1234
59.74	1229
59.75	1238
59.76	1214
59.77	1197
59.78	1237
59.79	1252
59.8	1261
59.81	1220
59.82	1220
59.83	1224
59.84	1218
59.85	1225
59.86	1229
59.87	1220
59.88	1218
59.89	1249
59.9	1243
59.91	1231
59.92	1219
59.93	1236
59.94	1246
59.95	1213
59.96	1232
59.97	1243
59.98	1218
59.99	1208
60.0	1215
60.01	1235
60.02	1231
60.03	1264
60.04	1262
60.05	1253
60.06	1215
60.07	1190
60.08	1213
60.09	1251
60.1	1200
60.11	1186
60.12	1171
60.13	1198
60.14	1260
60.15	1266
60.16	1283
60.17	1255
60.18	1245
60.19	1209
60.2	1206
60.21	1234
60.22	1241
60.23	1223
60.24	1209
60.25	1190
60.26	1171
60.27	1195
60.28	1219
60.29	1228
60.3	1233
60.31	1205
60.32	1199
60.33	1177
60.34	1210
60.35	1199
60.36	1189
60.37	1184
60.38	1212
60.39	1211
60.4	1237
60.41	1219
60.42	1151
60.43	1187
60.44	1195
60.45	1181
60.46	1183
60.47	1169
60.48	1220
60.49	1234
60.5	1196
60.51	1257
60.52	1244
60.53	1229
60.54	1202
60.55	1212
60.56	1237
60.57	1234
60.58	1212
60.59	1233
60.6	1210
60.61	1216
60.62	1179
60.63	1169
60.64	1177
60.65	1209
60.66	1208
60.67	1207
60.68	1264
60.69	1251
60.7	1192
60.71	1206
60.72	1217
60.73	1159
60.74	1176
60.75	1132
60.76	1192
60.77	1226
60.78	1223
60.79	1223
60.8	1188
60.81	1125
60.82	1171
60.83	1181
60.84	1164
60.85	1181
60.86	1211
60.87	1231
60.88	1217
60.89	1186
60.9	1204
60.91	1201
60.92	1194
60.93	1192
60.94	1181
60.95	1195
60.96	1178
60.97	1141
60.98	1169
60.99	1192
61.0	1191
61.01	1207
61.02	1220
61.03	1199
61.04	1210
61.05	1211
61.06	1206
61.07	1194
61.08	1188
61.09	1227
61.1	1206
61.11	1214
61.12	1226
61.13	1225
61.14	1225
61.15	1201
61.16	1194
61.17	1199
61.18	1205
61.19	1194
61.2	1231
61.21	1230
61.22	1228
61.23	1220
61.24	1185
61.25	1167
61.26	1232
61.27	1250
61.28	1214
61.29	1195
61.3	1190
61.31	1196
61.32	1202
61.33	1227
61.34	1251
61.35	1269
61.36	1268
61.37	1220
61.38	1205
61.39	1260
61.4	1264
61.41	1243
61.42	1238
61.43	1230
61.44	1255
61.45	1207
61.46	1219
61.47	1227
61.48	1220
61.49	1222
61.5	1242
61.51	1256
61.52	1235
61.53	1193
61.54	1182
61.55	1207
61.56	1202
61.57	1198
61.58	1231
61.59	1256
61.6	1238
61.61	1255
61.62	1219
61.63	1196
61.64	1213
61.65	1194
61.66	1207
61.67	1212
61.68	1254
61.69	1223
61.7	1208
61.71	1190
61.72	1222
61.73	1208
61.74	1216
61.75	1207
61.76	1232
61.77	1212
61.78	1202
61.79	1223
61.8	1196
61.81	1221
61.82	1230
61.83	1245
61.84	1243
61.85	1229
61.86	1202
61.87	1223
61.88	1218
61.89	1222
61.9	1180
61.91	1193
61.92	1214
61.93	1223
61.94	1242
61.95	1243
61.96	1199
61.97	1168
61.98	1189
61.99	1209
62.0	1196
62.01	1197
62.02	1204
62.03	1189
62.04	1204
62.05	1246
62.06	1221
62.07	1227
62.08	1225
62.09	1224
62.1	1251
62.11	1261
62.12	1224
62.13	1227
62.14	1203
62.15	1221
62.16	1255
62.17	1229
62.18	1211
62.19	1193
62.2	1230
62.21	1243
62.22	1249
62.23	1272
62.24	1241
62.25	1223
62.26	1270
62.27	1257
62.28	1244
62.29	1287
62.3	1284
62.31	1249
62.32	1257
62.33	1296
62.34	1281
62.35	1285
62.36	1269
62.37	1263
62.38	1279
62.39	1249
62.4	1242
62.41	1250
62.42	1248
62.43	1271
62.44	1293
62.45	1301
62.46	1237
62.47	1206
62.48	1212
62.49	1269
62.5	1277
62.51	1243
62.52	1270
62.53	1261
62.54	1269
62.55	1283
62.56	1267
62.57	1267
62.58	1270
62.59	1318
62.6	1311
62.61	1296
62.62	1277
62.63	1355
62.64	1378
62.65	1340
62.66	1330
62.67	1347
62.68	1363
62.69	1334
62.7	1373
62.71	1341
62.72	1335
62.73	1304
62.74	1364
62.75	1418
62.76	1423
62.77	1381
62.78	1405
62.79	1428
62.8	1422
62.81	1449
62.82	1394
62.83	1442
62.84	1492
62.85	1445
62.86	1466
62.87	1524
62.88	1499
62.89	1493
62.9	1540
62.91	1553
62.92	1517
62.93	1566
62.94	1587
62.95	1537
62.96	1579
62.97	1633
62.98	1671
62.99	1648
63.0	1608
63.01	1640
63.02	1652
63.03	1655
63.04	1664
63.05	1708
63.06	1771
63.07	1803
63.08	1799
63.09	1814
63.1	1802
63.11	1846
63.12	1901
63.13	1911
63.14	1912
63.15	1924
63.16	1959
63.17	2023
63.18	2093
63.19	2178
63.2	2200
63.21	2221
63.22	2275
63.23	2342
63.24	2350
63.25	2459
63.26	2474
63.27	2520
63.28	2638
63.29	2645
63.3	2719
63.31	2841
63.32	2938
63.33	2971
63.34	3097
63.35	3188
63.36	3236
63.37	3259
63.38	3397
63.39	3510
63.4	3576
63.41	3650
63.42	3728
63.43	3783
63.44	3951
63.45	4075
63.46	4141
63.47	4193
63.48	4154
63.49	4223
63.5	4308
63.51	4391
63.52	4410
63.53	4346
63.54	4445
63.55	4428
63.56	4437
63.57	4428
63.58	4366
63.59	4357
63.6	4280
63.61	4235
63.62	4181
63.63	4075
63.64	4068
63.65	3990
63.66	3891
63.67	3817
63.68	3743
63.69	3696
63.7	3623
63.71	3540
63.72	3403
63.73	3365
63.74	3280
63.75	3240
63.76	3158
63.77	2950
63.78	2943
63.79	2900
63.8	2807
63.81	2689
63.82	2585
63.83	2468
63.84	2387
63.85	2408
63.86	2334
63.87	2240
63.88	2118
63.89	2042
63.9	2040
63.91	2026
63.92	1971
63.93	1876
63.94	1855
63.95	1817
63.96	1755
63.97	1727
63.98	1775
63.99	1692
64.0	1632
64.01	1642
64.02	1606
64.03	1552
64.04	1530
64.05	1477
64.06	1499
64.07	1521
64.08	1529
64.09	1509
64.1	1501
64.11	1455
64.12	1413
64.13	1409
64.14	1429
64.15	1405
64.16	1408
64.17	1374
64.18	1362
64.19	1315
64.2	1321
64.21	1337
64.22	1302
64.23	1311
64.24	1292
64.25	1274
64.26	1292
64.27	1303
64.28	1304
64.29	1308
64.3	1288
64.31	1287
64.32	1245
64.33	1217
64.34	1286
64.35	1235
64.36	1195
64.37	1185
64.38	1201
64.39	1268
64.4	1249
64.41	1196
64.42	1186
64.43	1195
64.44	1150
64.45	1115
64.46	1108
64.47	1148
64.48	1174
64.49	1230
64.5	1212
64.51	1163
64.52	1161
64.53	1200
64.54	1151
64.55	1118
64.56	1111
64.57	1145
64.58	1133
64.59	1149
64.6	1145
64.61	1113
64.62	1099
64.63	1130
64.64	1121
64.65	1147
64.66	1104
64.67	1145
64.68	1140
64.69	1135
64.7	1143
64.71	1110
64.72	1131
64.73	1146
64.74	1120
64.75	1098
64.76	1122
64.77	1141
64.78	1105
64.79	1089
64.8	1103
64.81	1171
64.82	1159
64.83	1143
64.84	1147
64.85	1123
64.86	1156
64.87	1112
64.88	1087
64.89	1141
64.9	1156
64.91	1104
64.92	1123
64.93	1172
64.94	1114
64.95	1097
64.96	1080
64.97	1087
64.98	1128
64.99	1116
65.0	1050
65.01	1077
65.02	1087
65.03	1077
65.04	1094
65.05	1073
65.06	1081
65.07	1108
65.08	1091
65.09	1131
65.1	1111
65.11	1098
65.12	1089
65.13	1097
65.14	1111
65.15	1102
65.16	1081
65.17	1105
65.18	1095
65.19	1104
65.2	1098
65.21	1081
65.22	1064
65.23	1064
65.24	1053
65.25	1076
65.26	1090
65.27	1114
65.28	1080
65.29	1122
65.3	1091
65.31	1087
65.32	1085
65.33	1105
65.34	1102
65.35	1101
65.36	1103
65.37	1101
65.38	1073
65.39	1024
65.4	1073
65.41	1075
65.42	1090
65.43	1044
65.44	1067
65.45	1115
65.46	1062
65.47	1094
65.48	1081
65.49	1097
65.5	1105
65.51	1073
65.52	1085
65.53	1100
65.54	1105
65.55	1064
65.56	1032
65.57	1087
65.58	1103
65.59	1093
65.6	1105
65.61	1111
65.62	1102
65.63	1082
65.64	1060
65.65	1057
65.66	1065
65.67	1091
65.68	1115
65.69	1078
65.7	1075
65.71	1058
65.72	1078
65.73	1107
65.74	1095
65.75	1125
65.76	1095
65.77	1076
65.78	1024
65.79	1001
65.8	1034
65.81	1050
65.82	1123
65.83	1107
65.84	1038
65.85	1082
65.86	1101
65.87	1097
65.88	1061
65.89	1034
65.9	1073
65.91	1107
65.92	1055
65.93	1060
65.94	1087
65.95	1092
65.96	1061
65.97	1066
65.98	1083
65.99	1093
66.0	1113
66.01	1076
66.02	1068
66.03	1031
66.04	1038
66.05	1063
66.06	1076
66.07	1058
66.08	1078
66.09	1076
66.1	1081
66.11	1058
66.12	1106
66.13	1093
66.14	1105
66.15	1085
66.16	1048
66.17	1050
66.18	1092
66.19	1097
66.2	1113
66.21	1082
66.22	1038
66.23	1085
66.24	1085
66.25	1061
66.26	1068
66.27	1026
66.28	1043
66.29	1083
66.3	1066
66.31	1086
66.32	1066
66.33	1059
66.34	1122
66.35	1104
66.36	1081
66.37	1079
66.38	1070
66.39	1075
66.4	1063
66.41	1070
66.42	1100
66.43	1098
66.44	1096
66.45	1079
66.46	1081
66.47	1110
66.48	1120
66.49	1104
66.5	1119
66.51	1201
66.52	1107
66.53	1111
66.54	1106
66.55	1127
66.56	1146
66.57	1166
66.58	1169
66.59	1145
66.6	1148
66.61	1219
66.62	1215
66.63	1210
66.64	1226
66.65	1191
66.66	1223
66.67	1252
66.68	1175
66.69	1157
66.7	1178
66.71	1200
66.72	1218
66.73	1189
66.74	1225
66.75	1223
66.76	1196
66.77	1192
66.78	1217
66.79	1265
66.8	1259
66.81	1276
66.82	1292
66.83	1269
66.84	1258
66.85	1242
66.86	1244
66.87	1245
66.88	1244
66.89	1267
66.9	1267
66.91	1243
66.92	1256
66.93	1266
66.94	1197
66.95	1209
66.96	1225
66.97	1246
66.98	1240
66.99	1248
67.0	1203
67.01	1194
67.02	1239
67.03	1197
67.04	1148
67.05	1142
67.06	1150
67.07	1152
67.08	1197
67.09	1206
67.1	1157
67.11	1118
67.12	1181
67.13	1162
67.14	1127
67.15	1127
67.16	1109
67.17	1089
67.18	1082
67.19	1050
67.2	1059
67.21	1116
67.22	1109
67.23	1077
67.24	1096
67.25	1089
67.26	1057
67.27	1055
67.28	1082
67.29	1059
67.3	1078
67.31	1095
67.32	1078
67.33	1104
67.34	1069
67.35	1033
67.36	1042
67.37	1055
67.38	1088
67.39	1093
67.4	1061
67.41	1034
67.42	1082
67.43	1048
67.44	1050
67.45	1030
67.46	1011
67.47	999
67.48	1041
67.49	1066
67.5	1037
67.51	1005
67.52	1028
67.53	1048
67.54	991
67.55	986
67.56	1006
67.57	1008
67.58	1046
67.59	1024
67.6	1005
67.61	1003
67.62	1044
67.63	1043
67.64	966
67.65	996
67.66	1010
67.67	1033
67.68	1026
67.69	1005
67.7	991
67.71	1015
67.72	1036
67.73	1016
67.74	986
67.75	1001
67.76	985
67.77	971
67.78	1005
67.79	1007
67.8	972
67.81	946
67.82	987
67.83	1020
67.84	1027
67.85	1005
67.86	1002
67.87	988
67.88	999
67.89	1022
67.9	1008
67.91	1000
67.92	956
67.93	961
67.94	973
67.95	996
67.96	1000
67.97	1047
67.98	1019
67.99	985
68.0	1036
68.01	975
68.02	1023
68.03	1039
68.04	1015
68.05	990
68.06	970
68.07	981
68.08	981
68.09	1000
68.1	992
68.11	984
68.12	973
68.13	966
68.14	963
68.15	956
68.16	984
68.17	956
68.18	986
68.19	978
68.2	979
68.21	961
68.22	977
68.23	964
68.24	978
68.25	961
68.26	966
68.27	969
68.28	982
68.29	973
68.3	986
68.31	1020
68.32	1006
68.33	982
68.34	950
68.35	962
68.36	982
68.37	939
68.38	992
68.39	951
68.4	951
68.41	998
68.42	942
68.43	943
68.44	952
68.45	982
68.46	971
68.47	959
68.48	963
68.49	966
68.5	942
68.51	942
68.52	960
68.53	959
68.54	975
68.55	996
68.56	987
68.57	1000
68.58	971
68.59	1000
68.6	993
68.61	995
68.62	1008
68.63	988
68.64	1005
68.65	996
68.66	1005
68.67	952
68.68	933
68.69	947
68.7	957
68.71	946
68.72	970
68.73	992
68.74	990
68.75	968
68.76	983
68.77	962
68.78	968
68.79	980
68.8	999
68.81	982
68.82	985
68.83	984
68.84	960
68.85	998
68.86	968
68.87	979
68.88	959
68.89	994
68.9	1001
68.91	972
68.92	977
68.93	964
68.94	955
68.95	986
68.96	1000
68.97	993
68.98	957
68.99	981
69.0	1004
69.01	968
69.02	949
69.03	966
69.04	995
69.05	977
69.06	985
69.07	988
69.08	974
69.09	1000
69.1	1015
69.11	965
69.12	952
69.13	979
69.14	1022
69.15	1033
69.16	1006
69.17	977
69.18	983
69.19	962
69.2	936
69.21	962
69.22	937
69.23	966
69.24	945
69.25	969
69.26	929
69.27	942
69.28	969
69.29	959
69.3	958
69.31	933
69.32	949
69.33	933
69.34	973
69.35	951
69.36	942
69.37	958
69.38	941
69.39	952
69.4	996
69.41	956
69.42	916
69.43	924
69.44	937
69.45	919
69.46	891
69.47	897
69.48	906
69.49	942
69.5	937
69.51	936
69.52	957
69.53	934
69.54	929
69.55	924
69.56	919
69.57	936
69.58	955
69.59	943
69.6	931
69.61	943
69.62	952
69.63	933
69.64	925
69.65	956
69.66	951
69.67	930
69.68	943
69.69	958
69.7	911
69.71	911
69.72	943
69.73	921
69.74	915
69.75	912
69.76	907
69.77	890
69.78	882
69.79	895
69.8	919
69.81	926
69.82	941
69.83	932
69.84	953
69.85	902
69.86	898
69.87	919
69.88	903
69.89	932
69.9	954
69.91	906
69.92	887
69.93	914
69.94	907
69.95	938
69.96	934
69.97	901
69.98	908
69.99	935
70.0	941
70.01	936
70.02	938
70.03	947
70.04	944
70.05	966
70.06	961
70.07	931
70.08	898
70.09	924
70.1	930
70.11	903
70.12	882
70.13	912
70.14	906
70.15	956
70.16	904
70.17	893
70.18	919
70.19	920
70.2	919
70.21	949
70.22	955
70.23	952
70.24	946
70.25	946
70.26	952
70.27	952
70.28	940
70.29	981
70.3	957
70.31	912
70.32	937
70.33	908
70.34	938
70.35	976
70.36	932
70.37	912
70.38	930
70.39	965
70.4	978
70.41	987
70.42	982
70.43	964
70.44	942
70.45	944
70.46	941
70.47	919
70.48	949
70.49	965
70.5	956
70.51	957
70.52	980
70.53	965
70.54	971
70.55	974
70.56	922
70.57	921
70.58	919
70.59	902
70.6	948
70.61	927
70.62	913
70.63	925
70.64	932
70.65	930
70.66	941
70.67	940
70.68	946
70.69	933
70.7	937
70.71	959
70.72	939
70.73	917
70.74	914
70.75	958
70.76	943
70.77	916
70.78	912
70.79	918
70.8	900
70.81	895
70.82	905
70.83	879
70.84	871
70.85	920
70.86	921
70.87	878
70.88	898
70.89	928
70.9	941
70.91	899
70.92	893
70.93	861
70.94	867
70.95	886
70.96	900
70.97	919
70.98	876
70.99	914
71.0	912
71.01	871
71.02	915
71.03	928
71.04	918
71.05	891
71.06	873
71.07	878
71.08	886
71.09	893
71.1	908
71.11	889
71.12	884
71.13	879
71.14	896
71.15	879
71.16	873
71.17	891
71.18	885
71.19	830
71.2	895
71.21	928
71.22	868
71.23	872
71.24	854
71.25	858
71.26	888
71.27	872
71.28	866
71.29	878
71.3	852
71.31	863
71.32	920
71.33	881
71.34	889
71.35	872
71.36	887
71.37	881
71.38	882
71.39	878
71.4	864
71.41	889
71.42	866
71.43	859
71.44	874
71.45	868
71.46	865
71.47	845
71.48	859
71.49	870
71.5	872
71.51	859
71.52	848
71.53	873
71.54	850
71.55	859
71.56	870
71.57	865
71.58	856
71.59	865
71.6	856
71.61	835
71.62	877
71.63	873
71.64	867
71.65	871
71.66	860
71.67	852
71.68	917
71.69	921
71.7	882
71.71	873
71.72	878
71.73	872
71.74	845
71.75	844
71.76	885
71.77	895
71.78	890
71.79	845
71.8	862
71.81	853
71.82	849
71.83	890
71.84	906
71.85	895
71.86	866
71.87	840
71.88	841
71.89	858
71.9	847
71.91	869
71.92	866
71.93	856
71.94	849
71.95	858
71.96	864
71.97	843
71.98	881
71.99	867
72.0	864
72.01	806
72.02	830
72.03	823
72.04	863
72.05	884
72.06	860
72.07	850
72.08	863
72.09	861
72.1	829
72.11	824
72.12	849
72.13	876
72.14	866
72.15	882
72.16	839
72.17	818
72.18	817
72.19	834
72.2	887
72.21	873
72.22	903
72.23	866
72.24	879
72.25	865
72.26	850
72.27	856
72.28	838
72.29	833
72.3	870
72.31	858
72.32	843
72.33	839
72.34	857
72.35	894
72.36	866
72.37	845
72.38	872
72.39	870
72.4	824
72.41	843
72.42	862
72.43	849
72.44	874
72.45	844
72.46	836
72.47	841
72.48	812
72.49	809
72.5	857
72.51	849
72.52	846
72.53	843
72.54	872
72.55	843
72.56	834
72.57	816
72.58	787
72.59	809
72.6	832
72.61	851
72.62	824
72.63	829
72.64	853
72.65	853
72.66	881
72.67	879
72.68	842
72.69	829
72.7	812
72.71	831
72.72	820
72.73	819
72.74	864
72.75	830
72.76	811
72.77	815
72.78	822
72.79	845
72.8	848
72.81	851
72.82	835
72.83	833
72.84	855
72.85	879
72.86	854
72.87	830
72.88	853
72.89	877
72.9	900
72.91	872
72.92	846
72.93	844
72.94	862
72.95	836
72.96	821
72.97	866
72.98	868
72.99	856
73.0	866
73.01	861
73.02	802
73.03	809
73.04	861
73.05	878
73.06	873
73.07	845
73.08	854
73.09	840
73.1	840
73.11	827
73.12	802
73.13	826
73.14	819
73.15	835
73.16	829
73.17	817
73.18	853
73.19	860
73.2	845
73.21	816
73.22	862
73.23	839
73.24	867
73.25	838
73.26	823
73.27	838
73.28	865
73.29	874
73.3	850
73.31	837
73.32	838
73.33	806
73.34	830
73.35	844
73.36	876
73.37	851
73.38	832
73.39	847
73.4	815
73.41	827
73.42	822
73.43	851
73.44	888
73.45	843
73.46	809
73.47	797
73.48	832
73.49	863
73.5	852
73.51	803
73.52	799
73.53	884
73.54	878
73.55	819
73.56	831
73.57	871
73.58	884
73.59	882
73.6	865
73.61	876
73.62	861
73.63	866
73.64	869
73.65	868
73.66	858
73.67	855
73.68	880
73.69	878
73.7	870
73.71	850
73.72	867
73.73	841
73.74	845
73.75	823
73.76	864
73.77	858
73.78	864
73.79	878
73.8	851
73.81	835
73.82	875
73.83	878
73.84	853
73.85	880
73.86	843
73.87	820
73.88	826
73.89	863
73.9	849
73.91	850
73.92	845
73.93	831
73.94	830
73.95	847
73.96	855
73.97	848
73.98	863
73.99	864
74.0	859
74.01	839
74.02	817
74.03	831
74.04	841
74.05	841
74.06	854
74.07	849
74.08	847
74.09	829
74.1	859
74.11	817
74.12	802
74.13	830
74.14	854
74.15	860
74.16	834
74.17	848
74.18	845
74.19	827
74.2	855
74.21	868
74.22	855
74.23	851
74.24	831
74.25	827
74.26	801
74.27	819
74.28	828
74.29	846
74.3	849
74.31	820
74.32	887
74.33	870
74.34	853
74.35	866
74.36	850
74.37	831
74.38	821
74.39	815
74.4	817
74.41	839
74.42	847
74.43	853
74.44	843
74.45	823
74.46	809
74.47	836
74.48	851
74.49	837
74.5	861
74.51	823
74.52	795
74.53	788
74.54	842
74.55	887
74.56	873
74.57	833
74.58	815
74.59	821
74.6	820
74.61	815
74.62	850
74.63	860
74.64	845
74.65	825
74.66	829
74.67	851
74.68	847
74.69	824
74.7	830
74.71	877
74.72	903
74.73	900
74.74	830
74.75	830
74.76	860
74.77	862
74.78	841
74.79	828
74.8	844
74.81	812
74.82	843
74.83	857
74.84	840
74.85	822
74.86	861
74.87	877
74.88	835
74.89	828
74.9	847
74.91	857
74.92	866
74.93	862
74.94	879
74.95	837
74.96	868
74.97	889
74.98	897
74.99	930
75.0	925
75.01	874
75.02	886
75.03	886
75.04	880
75.05	871
75.06	888
75.07	906
75.08	890
75.09	889
75.1	925
75.11	920
75.12	903
75.13	908
75.14	943
75.15	917
75.16	905
75.17	938
75.18	959
75.19	943
75.2	945
75.21	930
75.22	921
75.23	964
75.24	903
75.25	907
75.26	957
75.27	932
75.28	904
75.29	930
75.3	969
75.31	958
75.32	932
75.33	936
75.34	920
75.35	873
75.36	892
75.37	903
75.38	957
75.39	961
75.4	922
75.41	926
75.42	906
75.43	963
75.44	965
75.45	935
75.46	933
75.47	919
75.48	931
75.49	942
75.5	925
75.51	894
75.52	902
75.53	916
75.54	925
75.55	917
75.56	917
75.57	906
75.58	875
75.59	830
75.6	906
75.61	899
75.62	886
75.63	910
75.64	864
75.65	847
75.66	886
75.67	897
75.68	891
75.69	873
75.7	900
75.71	919
75.72	890
75.73	880
75.74	892
75.75	879
75.76	873
75.77	873
75.78	879
75.79	874
75.8	845
75.81	899
75.82	898
75.83	902
75.84	906
75.85	880
75.86	878
75.87	862
75.88	885
75.89	882
75.9	896
75.91	903
75.92	911
75.93	901
75.94	893
75.95	923
75.96	905
75.97	878
75.98	868
75.99	876
76.0	917
76.01	928
76.02	941
76.03	931
76.04	906
76.05	948
76.06	925
76.07	915
76.08	917
76.09	948
76.1	968
76.11	979
76.12	971
76.13	987
76.14	969
76.15	961
76.16	989
76.17	991
76.18	963
76.19	922
76.2	948
76.21	935
76.22	1002
76.23	1026
76.24	987
76.25	952
76.26	956
76.27	961
76.28	966
76.29	982
76.3	976
76.31	971
76.32	982
76.33	963
76.34	971
76.35	995
76.36	961
76.37	960
76.38	955
76.39	958
76.4	940
76.41	913
76.42	893
76.43	885
76.44	920
76.45	911
76.46	901
76.47	875
76.48	860
76.49	853
76.5	892
76.51	906
76.52	884
76.53	873
76.54	912
76.55	909
76.56	878
76.57	844
76.58	883
76.59	852
76.6	834
76.61	823
76.62	828
76.63	860
76.64	873
76.65	842
76.66	808
76.67	840
76.68	820
76.69	786
76.7	808
76.71	822
76.72	825
76.73	822
76.74	813
76.75	804
76.76	795
76.77	803
76.78	801
76.79	780
76.8	800
76.81	811
76.82	786
76.83	815
76.84	793
76.85	799
76.86	833
76.87	799
76.88	830
76.89	813
76.9	750
76.91	772
76.92	799
76.93	768
76.94	773
76.95	802
76.96	784
76.97	789
76.98	793
76.99	790
77.0	815
77.01	789
77.02	769
77.03	758
77.04	813
77.05	812
77.06	764
77.07	768
77.08	783
77.09	779
77.1	783
77.11	796
77.12	791
77.13	784
77.14	778
77.15	786
77.16	739
77.17	742
77.18	778
77.19	793
77.2	776
77.21	753
77.22	790
77.23	771
77.24	739
77.25	740
77.26	800
77.27	802
77.28	807
77.29	822
77.3	758
77.31	780
77.32	762
77.33	773
77.34	774
77.35	752
77.36	738
77.37	748
77.38	775
77.39	772
77.4	762
77.41	778
77.42	782
77.43	770
77.44	776
77.45	761
77.46	785
77.47	798
77.48	771
77.49	767
77.5	782
77.51	746
77.52	777
77.53	795
77.54	759
77.55	758
77.56	773
77.57	776
77.58	763
77.59	794
77.6	793
77.61	775
77.62	779
77.63	793
77.64	799
77.65	793
77.66	809
77.67	805
77.68	805
77.69	795
77.7	785
77.71	745
77.72	753
77.73	815
77.74	821
77.75	765
77.76	743
77.77	783
77.78	771
77.79	803
77.8	775
77.81	764
77.82	775
77.83	770
77.84	766
77.85	830
77.86	843
77.87	828
77.88	795
77.89	802
77.9	789
77.91	787
77.92	787
77.93	789
77.94	790
77.95	793
77.96	788
77.97	786
77.98	816
77.99	775
78.0	737
78.01	723
78.02	768
78.03	773
78.04	764
78.05	760
78.06	755
78.07	759
78.08	779
78.09	798
78.1	779
78.11	772
78.12	786
78.13	786
78.14	781
78.15	737
78.16	764
78.17	773
78.18	729
78.19	760
78.2	772
78.21	804
78.22	775
78.23	749
78.24	774
78.25	792
78.26	792
78.27	796
78.28	768
78.29	770
78.3	770
78.31	756
78.32	779
78.33	801
78.34	798
78.35	803
78.36	817
78.37	782
78.38	814
78.39	793
78.4	754
78.41	786
78.42	776
78.43	788
78.44	764
78.45	765
78.46	782
78.47	795
78.48	801
78.49	795
78.5	789
78.51	778
78.52	770
78.53	794
78.54	817
78.55	806
78.56	774
78.57	804
78.58	769
78.59	782
78.6	808
78.61	796
78.62	771
78.63	759
78.64	772
78.65	785
78.66	774
78.67	808
78.68	837
78.69	826
78.7	786
78.71	764
78.72	747
78.73	743
78.74	707
78.75	767
78.76	790
78.77	769
78.78	777
78.79	794
78.8	799
78.81	805
78.82	808
78.83	784
78.84	786
78.85	793
78.86	775
78.87	770
78.88	781
78.89	813
78.9	800
78.91	795
78.92	810
78.93	798
78.94	777
78.95	789
78.96	805
78.97	787
78.98	817
78.99	810
79.0	834
79.01	813
79.02	802
79.03	867
79.04	858
79.05	821
79.06	824
79.07	801
79.08	769
79.09	759
79.1	777
79.11	791
79.12	789
79.13	783
79.14	766
79.15	799
79.16	786
79.17	780
79.18	778
79.19	803
79.2	765
79.21	750
79.22	779
79.23	779
79.24	765
79.25	794
79.26	829
79.27	829
79.28	813
79.29	779
79.3	812
79.31	817
79.32	807
79.33	801
79.34	800
79.35	797
79.36	771
79.37	784
79.38	790
79.39	818
79.4	798
79.41	808
79.42	825
79.43	816
79.44	830
79.45	866
79.46	866
79.47	858
79.48	823
79.49	829
79.5	831
79.51	809
79.52	805
79.53	849
79.54	836
79.55	800
79.56	812
79.57	797
79.58	836
79.59	840
79.6	853
79.61	874
79.62	863
79.63	875
79.64	864
79.65	855
79.66	820
79.67	858
79.68	871
79.69	891
79.7	883
79.71	868
79.72	890
79.73	910
79.74	911
79.75	886
79.76	911
79.77	957
79.78	964
79.79	931
79.8	933
79.81	909
79.82	943
79.83	971
79.84	1011
79.85	981
79.86	973
79.87	1013
79.88	944
79.89	960
79.9	1023
79.91	1040
79.92	995
79.93	1050
79.94	1081
79.95	1073
79.96	1079
79.97	1068
79.98	1091
79.99	1077
80.0	1047
80.01	1124
80.02	1147
80.03	1162
80.04	1161
80.05	1195
80.06	1216
80.07	1233
80.08	1257
80.09	1287
80.1	1319
80.11	1352
80.12	1333
80.13	1342
80.14	1350
80.15	1397
80.16	1437
80.17	1415
80.18	1446
80.19	1485
80.2	1516
80.21	1517
80.22	1549
80.23	1547
80.24	1578
80.25	1556
80.26	1546
80.27	1562
80.28	1548
80.29	1561
80.3	1636
80.31	1650
80.32	1599
80.33	1582
80.34	1557
80.35	1483
80.36	1487
80.37	1492
80.38	1444
80.39	1455
80.4	1501
80.41	1446
80.42	1449
80.43	1446
80.44	1384
80.45	1365
80.46	1351
80.47	1352
80.48	1309
80.49	1319
80.5	1343
80.51	1292
80.52	1282
80.53	1285
80.54	1236
80.55	1183
80.56	1200
80.57	1174
80.58	1137
80.59	1178
80.6	1139
80.61	1101
80.62	1127
80.63	1078
80.64	1036
80.65	1037
80.66	1028
80.67	989
80.68	989
80.69	965
80.7	941
80.71	938
80.72	959
80.73	946
80.74	982
80.75	916
80.76	889
80.77	908
80.78	890
80.79	871
80.8	865
80.81	873
80.82	878
80.83	861
80.84	848
80.85	839
80.86	837
80.87	845
80.88	834
80.89	840
80.9	825
80.91	811
80.92	838
80.93	835
80.94	833
80.95	786
80.96	792
80.97	786
80.98	794
80.99	807
81.0	785
81.01	786
81.02	772
81.03	758
81.04	757
81.05	757
81.06	765
81.07	765
81.08	770
81.09	785
81.1	792
81.11	816
81.12	775
81.13	775
81.14	772
81.15	756
81.16	766
81.17	750
81.18	757
81.19	758
81.2	754
81.21	779
81.22	770
81.23	750
81.24	744
81.25	751
81.26	748
81.27	741
81.28	736
81.29	714
81.3	730
81.31	725
81.32	739
81.33	761
81.34	738
81.35	772
81.36	771
81.37	726
81.38	724
81.39	738
81.4	736
81.41	734
81.42	737
81.43	738
81.44	730
81.45	735
81.46	757
81.47	758
81.48	746
81.49	732
81.5	732
81.51	729
81.52	718
81.53	740
81.54	721
81.55	714
81.56	742
81.57	750
81.58	743
81.59	745
81.6	710
81.61	697
81.62	728
81.63	756
81.64	733
81.65	734
81.66	761
81.67	748
81.68	754
81.69	751
81.7	721
81.71	698
81.72	708
81.73	724
81.74	714
81.75	741
81.76	742
81.77	740
81.78	721
81.79	737
81.8	740
81.81	725
81.82	739
81.83	729
81.84	701
81.85	701
81.86	707
81.87	692
81.88	708
81.89	724
81.9	718
81.91	706
81.92	710
81.93	735
81.94	704
81.95	727
81.96	728
81.97	722
81.98	726
81.99	706
82.0	678
82.01	700
82.02	695
82.03	717
82.04	739
82.05	724
82.06	702
82.07	718
82.08	724
82.09	717
82.1	729
82.11	701
82.12	708
82.13	722
82.14	722
82.15	706
82.16	722
82.17	723
82.18	712
82.19	760
82.2	784
82.21	769
82.22	718
82.23	702
82.24	688
82.25	727
82.26	730
82.27	694
82.28	712
82.29	727
82.3	714
82.31	716
82.32	710
82.33	713
82.34	712
82.35	716
82.36	713
82.37	695
82.38	697
82.39	695
82.4	703
82.41	713
82.42	720
82.43	724
82.44	764
82.45	749
82.46	756
82.47	741
82.48	733
82.49	751
82.5	756
82.51	742
82.52	741
82.53	738
82.54	755
82.55	724
82.56	714
82.57	749
82.58	784
82.59	751
82.6	725
82.61	760
82.62	754
82.63	785
82.64	774
82.65	749
82.66	751
82.67	760
82.68	792
82.69	762
82.7	766
82.71	780
82.72	786
82.73	796
82.74	777
82.75	788
82.76	788
82.77	786
82.78	770
82.79	787
82.8	761
82.81	785
82.82	798
82.83	809
82.84	796
82.85	777
82.86	775
82.87	815
82.88	838
82.89	826
82.9	810
82.91	800
82.92	791
82.93	823
82.94	814
82.95	802
82.96	829
82.97	843
82.98	859
82.99	853
83.0	838
83.01	809
83.02	845
83.03	854
83.04	803
83.05	791
83.06	794
83.07	824
83.08	836
83.09	820
83.1	802
83.11	793
83.12	821
83.13	805
83.14	775
83.15	789
83.16	830
83.17	817
83.18	786
83.19	786
83.2	812
83.21	791
83.22	765
83.23	793
83.24	841
83.25	834
83.26	817
83.27	792
83.28	787
83.29	803
83.3	798
83.31	792
83.32	751
83.33	771
83.34	826
83.35	801
83.36	771
83.37	767
83.38	763
83.39	725
83.4	738
83.41	759
83.42	773
83.43	783
83.44	766
83.45	745
83.46	800
83.47	800
83.48	760
83.49	748
83.5	771
83.51	741
83.52	749
83.53	753
83.54	731
83.55	697
83.56	708
83.57	735
83.58	739
83.59	737
83.6	748
83.61	758
83.62	748
83.63	717
83.64	737
83.65	746
83.66	720
83.67	723
83.68	712
83.69	688
83.7	696
83.71	691
83.72	694
83.73	706
83.74	696
83.75	708
83.76	705
83.77	704
83.78	712
83.79	708
83.8	704
83.81	700
83.82	694
83.83	663
83.84	691
83.85	721
83.86	677
83.87	671
83.88	686
83.89	671
83.9	704
83.91	678
83.92	680
83.93	680
83.94	633
83.95	647
83.96	661
83.97	691
83.98	691
83.99	682
84.0	670
84.01	686
84.02	682
84.03	667
84.04	663
84.05	669
84.06	670
84.07	671
84.08	685
84.09	665
84.1	667
84.11	688
84.12	700
84.13	655
84.14	618
84.15	618
84.16	665
84.17	670
84.18	683
84.19	698
84.2	675
84.21	663
84.22	668
84.23	656
84.24	650
84.25	651
84.26	640
84.27	654
84.28	642
84.29	633
84.3	644
84.31	667
84.32	671
84.33	667
84.34	674
84.35	655
84.36	656
84.37	654
84.38	623
84.39	622
84.4	632
84.41	635
84.42	625
84.43	623
84.44	646
84.45	651
84.46	637
84.47	664
84.48	636
84.49	650
84.5	662
84.51	638
84.52	639
84.53	597
84.54	637
84.55	638
84.56	660
84.57	638
84.58	628
84.59	651
84.6	649
84.61	644
84.62	645
84.63	649
84.64	667
84.65	638
84.66	623
84.67	618
84.68	639
84.69	661
84.7	640
84.71	636
84.72	646
84.73	637
84.74	650
84.75	645
84.76	650
84.77	644
84.78	649
84.79	642
84.8	636
84.81	667
84.82	662
84.83	619
84.84	610
84.85	600
84.86	622
84.87	641
84.88	624
84.89	628
84.9	624
84.91	638
84.92	626
84.93	607
84.94	640
84.95	628
84.96	608
84.97	636
84.98	636
84.99	620
85.0	602
85.01	626
85.02	647
85.03	623
85.04	616
85.05	642
85.06	651
85.07	629
85.08	614
85.09	625
85.1	655
85.11	646
85.12	629
85.13	628
85.14	620
85.15	602
85.16	635
85.17	644
85.18	622
85.19	609
85.2	637
85.21	630
85.22	600
85.23	598
85.24	642
85.25	650
85.26	652
85.27	655
85.28	644
85.29	647
85.3	657
85.31	645
85.32	615
85.33	660
85.34	634
85.35	615
85.36	627
85.37	656
85.38	628
85.39	648
85.4	625
85.41	582
85.42	589
85.43	633
85.44	617
85.45	611
85.46	649
85.47	650
85.48	637
85.49	621
85.5	606
85.51	632
85.52	649
85.53	628
85.54	635
85.55	641
85.56	621
85.57	629
85.58	638
85.59	658
85.6	664
85.61	629
85.62	609
85.63	614
85.64	627
85.65	635
85.66	624
85.67	618
85.68	632
85.69	627
85.7	632
85.71	628
85.72	613
85.73	611
85.74	624
85.75	603
85.76	619
85.77	625
85.78	631
85.79	615
85.8	626
85.81	622
85.82	598
85.83	589
85.84	596
85.85	628
85.86	631
85.87	617
85.88	594
85.89	598
85.9	596
85.91	607
85.92	631
85.93	621
85.94	616
85.95	649
85.96	633
85.97	638
85.98	598
85.99	597
86.0	631
86.01	631
86.02	598
86.03	595
86.04	598
86.05	617
86.06	645
86.07	642
86.08	632
86.09	615
86.1	610
86.11	598
86.12	599
86.13	619
86.14	633
86.15	635
86.16	611
86.17	602
86.18	608
86.19	631
86.2	594
86.21	585
86.22	590
86.23	610
86.24	604
86.25	615
86.26	608
86.27	607
86.28	616
86.29	618
86.3	629
86.31	608
86.32	608
86.33	643
86.34	640
86.35	630
86.36	618
86.37	616
86.38	614
86.39	615
86.4	607
86.41	630
86.42	636
86.43	620
86.44	606
86.45	617
86.46	635
86.47	618
86.48	619
86.49	610
86.5	619
86.51	637
86.52	635
86.53	602
86.54	584
86.55	589
86.56	585
86.57	608
86.58	613
86.59	619
86.6	624
86.61	593
86.62	582
86.63	587
86.64	604
86.65	630
86.66	633
86.67	619
86.68	621
86.69	613
86.7	597
86.71	610
86.72	611
86.73	626
86.74	636
86.75	629
86.76	596
86.77	599
86.78	605
86.79	619
86.8	631
86.81	643
86.82	612
86.83	619
86.84	610
86.85	623
86.86	633
86.87	641
86.88	636
86.89	601
86.9	591
86.91	603
86.92	600
86.93	582
86.94	567
86.95	577
86.96	606
86.97	615
86.98	586
86.99	574
87.0	597
87.01	616
87.02	602
87.03	592
87.04	613
87.05	629
87.06	612
87.07	605
87.08	597
87.09	601
87.1	597
87.11	611
87.12	602
87.13	593
87.14	606
87.15	627
87.16	623
87.17	606
87.18	600
87.19	615
87.2	620
87.21	618
87.22	604
87.23	606
87.24	621
87.25	616
87.26	580
87.27	589
87.28	599
87.29	584
87.3	590
87.31	591
87.32	599
87.33	582
87.34	573
87.35	591
87.36	607
87.37	606
87.38	603
87.39	591
87.4	595
87.41	595
87.42	602
87.43	588
87.44	587
87.45	584
87.46	603
87.47	607
87.48	619
87.49	623
87.5	613
87.51	608
87.52	596
87.53	605
87.54	620
87.55	606
87.56	578
87.57	591
87.58	611
87.59	600
87.6	590
87.61	587
87.62	579
87.63	594
87.64	593
87.65	580
87.66	571
87.67	568
87.68	598
87.69	615
87.7	597
87.71	594
87.72	602
87.73	610
87.74	592
87.75	604
87.76	606
87.77	609
87.78	625
87.79	639
87.8	628
87.81	629
87.82	640
87.83	603
87.84	583
87.85	588
87.86	610
87.87	583
87.88	580
87.89	592
87.9	595
87.91	601
87.92	610
87.93	603
87.94	597
87.95	581
87.96	581
87.97	601
87.98	612
87.99	606
88.0	604
88.01	593
88.02	580
88.03	577
88.04	577
88.05	595
88.06	599
88.07	578
88.08	562
88.09	570
88.1	608
88.11	602
88.12	579
88.13	572
88.14	568
88.15	572
88.16	594
88.17	595
88.18	563
88.19	553
88.2	579
88.21	594
88.22	588
88.23	580
88.24	573
88.25	595
88.26	616
88.27	607
88.28	604
88.29	611
88.3	626
88.31	607
88.32	595
88.33	577
88.34	580
88.35	593
88.36	599
88.37	576
88.38	586
88.39	579
88.4	562
88.41	578
88.42	589
88.43	602
88.44	602
88.45	578
88.46	565
88.47	578
88.48	594
88.49	604
88.5	617
88.51	637
88.52	625
88.53	590
88.54	591
88.55	602
88.56	589
88.57	600
88.58	603
88.59	596
88.6	583
88.61	590
88.62	597
88.63	605
88.64	622
88.65	607
88.66	593
88.67	598
88.68	595
88.69	594
88.7	585
88.71	580
88.72	566
88.73	560
88.74	584
88.75	605
88.76	581
88.77	578
88.78	593
88.79	607
88.8	610
88.81	584
88.82	583
88.83	593
88.84	592
88.85	584
88.86	605
88.87	616
88.88	597
88.89	590
88.9	587
88.91	599
88.92	597
88.93	574
88.94	561
88.95	562
88.96	585
88.97	596
88.98	615
88.99	610
89.0	597
89.01	597
89.02	586
89.03	596
89.04	609
89.05	603
89.06	602
89.07	600
89.08	587
89.09	580
89.1	583
89.11	585
89.12	592
89.13	596
89.14	607
89.15	612
89.16	606
89.17	594
89.18	589
89.19	600
89.2	610
89.21	609
89.22	619
89.23	599
89.24	574
89.25	582
89.26	585
89.27	590
89.28	587
89.29	581
89.3	589
89.31	589
89.32	605
89.33	608
89.34	590
89.35	596
89.36	596
89.37	600
89.38	621
89.39	600
89.4	569
89.41	569
89.42	599
89.43	614
89.44	609
89.45	604
89.46	616
89.47	612
89.48	602
89.49	605
89.5	595
89.51	590
89.52	597
89.53	595
89.54	608
89.55	625
89.56	596
89.57	592
89.58	595
89.59	602
89.6	602
89.61	604
89.62	593
89.63	596
89.64	601
89.65	592
89.66	581
89.67	563
89.68	553
89.69	584
89.7	625
89.71	622
89.72	600
89.73	600
89.74	598
89.75	596
89.76	603
89.77	614
89.78	621
89.79	607
89.8	597
89.81	602
89.82	600
89.83	589
89.84	585
89.85	592
89.86	597
89.87	581
89.88	577
89.89	592
89.9	590
89.91	589
89.92	608
89.93	607
89.94	599
89.95	606
89.96	613
89.97	599
89.98	578
89.99	593
90.0	606
90.01	602
90.02	614
90.03	623
90.04	619
90.05	600
90.06	587
90.07	585
90.08	595
90.09	612
90.1	612
90.11	596
90.12	598
90.13	598
90.14	595
90.15	591
90.16	588
90.17	596
90.18	597
90.19	592
90.2	579
90.21	587
90.22	612
90.23	614
90.24	595
90.25	592
90.26	589
90.27	585
90.28	597
90.29	609
90.3	615
90.31	628
90.32	625
90.33	618
90.34	609
90.35	599
90.36	597
90.37	613
90.38	623
90.39	612
90.4	606
90.41	606
90.42	604
90.43	603
90.44	617
90.45	604
90.46	570
90.47	591
90.48	626
90.49	641
90.5	618
90.51	614
90.52	612
90.53	598
90.54	607
90.55	621
90.56	623
90.57	622
90.58	621
90.59	623
90.6	627
90.61	621
90.62	631
90.63	645
90.64	640
90.65	637
90.66	626
90.67	633
90.68	645
90.69	636
90.7	622
90.71	617
90.72	628
90.73	637
90.74	639
90.75	637
90.76	628
90.77	604
90.78	593
90.79	603
90.8	618
90.81	626
90.82	620
90.83	589
90.84	604
90.85	653
90.86	637
90.87	616
90.88	634
90.89	634
90.9	636
90.91	641
90.92	641
90.93	642
90.94	641
90.95	642
90.96	646
90.97	639
90.98	655
90.99	693
91.0	694
91.01	685
91.02	661
91.03	638
91.04	649
91.05	682
91.06	678
91.07	652
91.08	636
91.09	643
91.1	673
91.11	675
91.12	658
91.13	664
91.14	670
91.15	659
91.16	665
91.17	677
91.18	666
91.19	654
91.2	648
91.21	637
91.22	635
91.23	646
91.24	660
91.25	644
91.26	617
91.27	642
91.28	652
91.29	633
91.3	636
91.31	655
91.32	677
91.33	662
91.34	638
91.35	638
91.36	638
91.37	635
91.38	638
91.39	636
91.4	631
91.41	638
91.42	643
91.43	633
91.44	622
91.45	635
91.46	656
91.47	639
91.48	619
91.49	638
91.5	648
91.51	624
91.52	597
91.53	600
91.54	609
91.55	617
91.56	633
91.57	648
91.58	654
91.59	636
91.6	634
91.61	616
91.62	585
91.63	588
91.64	621
91.65	633
91.66	625
91.67	613
91.68	593
91.69	616
91.7	620
91.71	584
91.72	577
91.73	583
91.74	586
91.75	585
91.76	594
91.77	613
91.78	606
91.79	584
91.8	580
91.81	586
91.82	584
91.83	579
91.84	597
91.85	606
91.86	593
91.87	579
91.88	569
91.89	571
91.9	596
91.91	623
91.92	615
91.93	596
91.94	594
91.95	594
91.96	583
91.97	581
91.98	571
91.99	575
92.0	596
92.01	599
92.02	599
92.03	595
92.04	568
92.05	557
92.06	579
92.07	588
92.08	588
92.09	582
92.1	567
92.11	561
92.12	573
92.13	610
92.14	598
92.15	589
92.16	610
92.17	586
92.18	559
92.19	555
92.2	560
92.21	573
92.22	580
92.23	570
92.24	556
92.25	574
92.26	591
92.27	574
92.28	574
92.29	592
92.3	598
92.31	597
92.32	594
92.33	600
92.34	601
92.35	584
92.36	563
92.37	564
92.38	567
92.39	556
92.4	564
92.41	575
92.42	575
92.43	561
92.44	569
92.45	585
92.46	583
92.47	577
92.48	574
92.49	576
92.5	581
92.51	577
92.52	583
92.53	587
92.54	570
92.55	585
92.56	617
92.57	595
92.58	569
92.59	594
92.6	608
92.61	602
92.62	573
92.63	568
92.64	570
92.65	564
92.66	567
92.67	571
92.68	585
92.69	578
92.7	562
92.71	572
92.72	593
92.73	584
92.74	557
92.75	570
92.76	597
92.77	578
92.78	539
92.79	538
92.8	567
92.81	585
92.82	600
92.83	614
92.84	596
92.85	578
92.86	573
92.87	564
92.88	560
92.89	562
92.9	572
92.91	584
92.92	580
92.93	572
92.94	566
92.95	573
92.96	571
92.97	562
92.98	563
92.99	571
93.0	565
93.01	558
93.02	584
93.03	587
93.04	590
93.05	600
93.06	574
93.07	543
93.08	552
93.09	582
93.1	592
93.11	585
93.12	580
93.13	586
93.14	596
93.15	583
93.16	574
93.17	579
93.18	584
93.19	584
93.2	573
93.21	563
93.22	553
93.23	578
93.24	567
93.25	561
93.26	570
93.27	564
93.28	578
93.29	584
93.3	571
93.31	584
93.32	596
93.33	584
93.34	571
93.35	571
93.36	581
93.37	583
93.38	594
93.39	583
93.4	555
93.41	559
93.42	564
93.43	563
93.44	569
93.45	570
93.46	559
93.47	549
93.48	587
93.49	607
93.5	590
93.51	559
93.52	565
93.53	573
93.54	565
93.55	573
93.56	566
93.57	546
93.58	562
93.59	565
93.6	557
93.61	564
93.62	571
93.63	569
93.64	558
93.65	550
93.66	567
93.67	567
93.68	562
93.69	546
93.7	550
93.71	554
93.72	567
93.73	574
93.74	567
93.75	563
93.76	561
93.77	548
93.78	555
93.79	562
93.8	554
93.81	549
93.82	543
93.83	534
93.84	525
93.85	545
93.86	557
93.87	559
93.88	548
93.89	564
93.9	570
93.91	574
93.92	580
93.93	573
93.94	562
93.95	576
93.96	579
93.97	553
93.98	546
93.99	565
94.0	563
94.01	552
94.02	561
94.03	570
94.04	562
94.05	565
94.06	592
94.07	587
94.08	569
94.09	562
94.1	572
94.11	600
94.12	600
94.13	569
94.14	550
94.15	546
94.16	552
94.17	556
94.18	568
94.19	560
94.2	571
94.21	595
94.22	592
94.23	587
94.24	579
94.25	570
94.26	564
94.27	591
94.28	575
94.29	550
94.3	564
94.31	573
94.32	575
94.33	596
94.34	612
94.35	593
94.36	603
94.37	577
94.38	580
94.39	597
94.4	583
94.41	590
94.42	574
94.43	548
94.44	542
94.45	572
94.46	603
94.47	586
94.48	572
94.49	562
94.5	571
94.51	585
94.52	572
94.53	564
94.54	569
94.55	573
94.56	586
94.57	581
94.58	565
94.59	589
94.6	603
94.61	600
94.62	584
94.63	560
94.64	553
94.65	568
94.66	573
94.67	588
94.68	599
94.69	607
94.7	597
94.71	571
94.72	569
94.73	574
94.74	575
94.75	567
94.76	560
94.77	570
94.78	576
94.79	570
94.8	590
94.81	602
94.82	615
94.83	610
94.84	583
94.85	571
94.86	576
94.87	582
94.88	570
94.89	585
94.9	597
94.91	602
94.92	594
94.93	584
94.94	578
94.95	586
94.96	596
94.97	594
94.98	567
94.99	564
95.0	598
95.01	620
95.02	604
95.03	589
95.04	592
95.05	582
95.06	594
95.07	588
95.08	588
95.09	591
95.1	602
95.11	578
95.12	578
95.13	585
95.14	580
95.15	580
95.16	582
95.17	578
95.18	577
95.19	575
95.2	599
95.21	597
95.22	584
95.23	584
95.24	583
95.25	590
95.26	599
95.27	600
95.28	593
95.29	593
95.3	610
95.31	599
95.32	620
95.33	613
95.34	599
95.35	570
95.36	602
95.37	620
95.38	617
95.39	604
95.4	612
95.41	622
95.42	618
95.43	605
95.44	605
95.45	625
95.46	633
95.47	627
95.48	608
95.49	631
95.5	633
95.51	619
95.52	645
95.53	659
95.54	641
95.55	623
95.56	646
95.57	638
95.58	630
95.59	607
95.6	634
95.61	640
95.62	638
95.63	655
95.64	653
95.65	656
95.66	636
95.67	637
95.68	686
95.69	691
95.7	685
95.71	681
95.72	683
95.73	690
95.74	675
95.75	679
95.76	706
95.77	717
95.78	691
95.79	694
95.8	674
95.81	701
95.82	693
95.83	651
95.84	665
95.85	701
95.86	711
95.87	722
95.88	744
95.89	740
95.9	739
95.91	750
95.92	753
95.93	770
95.94	783
95.95	764
95.96	745
95.97	766
95.98	740
95.99	768
96.0	751
96.01	781
96.02	771
96.03	754
96.04	751
96.05	775
96.06	791
96.07	783
96.08	790
96.09	793
96.1	783
96.11	794
96.12	788
96.13	787
96.14	799
96.15	797
96.16	789
96.17	810
96.18	818
96.19	819
96.2	842
96.21	866
96.22	809
96.23	784
96.24	802
96.25	800
96.26	810
96.27	807
96.28	775
96.29	744
96.3	757
96.31	761
96.32	773
96.33	758
96.34	736
96.35	765
96.36	804
96.37	782
96.38	768
96.39	738
96.4	734
96.41	725
96.42	769
96.43	733
96.44	718
96.45	745
96.46	753
96.47	742
96.48	730
96.49	714
96.5	692
96.51	724
96.52	744
96.53	732
96.54	701
96.55	686
96.56	696
96.57	703
96.58	704
96.59	690
96.6	677
96.61	664
96.62	689
96.63	708
96.64	684
96.65	675
96.66	665
96.67	679
96.68	670
96.69	633
96.7	656
96.71	687
96.72	676
96.73	662
96.74	655
96.75	656
96.76	650
96.77	633
96.78	650
96.79	644
96.8	625
96.81	600
96.82	611
96.83	610
96.84	632
96.85	637
96.86	622
96.87	618
96.88	622
96.89	616
96.9	591
96.91	576
96.92	565
96.93	583
96.94	606
96.95	589
96.96	577
96.97	597
96.98	584
96.99	601
97.0	615
97.01	618
97.02	567
97.03	571
97.04	568
97.05	575
97.06	586
97.07	586
97.08	606
97.09	587
97.1	557
97.11	584
97.12	602
97.13	608
97.14	597
97.15	579
97.16	558
97.17	567
97.18	552
97.19	561
97.2	573
97.21	579
97.22	569
97.23	575
97.24	584
97.25	553
97.26	547
97.27	567
97.28	567
97.29	552
97.3	566
97.31	591
97.32	579
97.33	552
97.34	557
97.35	575
97.36	568
97.37	555
97.38	572
97.39	568
97.4	544
97.41	526
97.42	561
97.43	570
97.44	562
97.45	567
97.46	568
97.47	576
97.48	553
97.49	550
97.5	546
97.51	543
97.52	551
97.53	551
97.54	566
97.55	542
97.56	535
97.57	545
97.58	546
97.59	562
97.6	592
97.61	591
97.62	557
97.63	538
97.64	542
97.65	550
97.66	541
97.67	554
97.68	551
97.69	547
97.7	559
97.71	577
97.72	568
97.73	536
97.74	527
97.75	565
97.76	552
97.77	542
97.78	532
97.79	546
97.8	570
97.81	588
97.82	578
97.83	559
97.84	566
97.85	580
97.86	558
97.87	537
97.88	567
97.89	560
97.9	544
97.91	538
97.92	541
97.93	531
97.94	521
97.95	538
97.96	538
97.97	540
97.98	562
97.99	565
98.0	551
98.01	543
98.02	553
98.03	562
98.04	559
98.05	544
98.06	535
98.07	514
98.08	550
98.09	553
98.1	542
98.11	559
98.12	557
98.13	552
98.14	549
98.15	563
98.16	556
98.17	523
98.18	531
98.19	517
98.2	520
98.21	538
98.22	547
98.23	553
98.24	538
98.25	535
98.26	534
98.27	538
98.28	558
98.29	537
98.3	540
98.31	548
98.32	557
98.33	554
98.34	566
98.35	572
98.36	569
98.37	575
98.38	567
98.39	554
98.4	566
98.41	573
98.42	559
98.43	570
98.44	571
98.45	550
98.46	557
98.47	550
98.48	544
98.49	546
98.5	558
98.51	538
98.52	541
98.53	566
98.54	565
98.55	527
98.56	546
98.57	555
98.58	566
98.59	551
98.6	551
98.61	562
98.62	580
98.63	578
98.64	563
98.65	543
98.66	569
98.67	564
98.68	563
98.69	559
98.7	563
98.71	563
98.72	560
98.73	552
98.74	550
98.75	555
98.76	556
98.77	552
98.78	559
98.79	565
98.8	582
98.81	579
98.82	572
98.83	561
98.84	554
98.85	550
98.86	540
98.87	581
98.88	583
98.89	566
98.9	558
98.91	541
98.92	564
98.93	566
98.94	554
98.95	552
98.96	567
98.97	545
98.98	536
98.99	554
99.0	545
99.01	557
99.02	559
99.03	568
99.04	567
99.05	577
99.06	577
99.07	553
99.08	533
99.09	562
99.1	590
99.11	606
99.12	576
99.13	540
99.14	552
99.15	575
99.16	594
99.17	577
99.18	567
99.19	565
99.2	581
99.21	548
99.22	567
99.23	538
99.24	548
99.25	577
99.26	592
99.27	586
99.28	566
99.29	606
99.3	578
99.31	539
99.32	549
99.33	585
99.34	585
99.35	575
99.36	551
99.37	560
99.38	582
99.39	567
99.4	542
99.41	558
99.42	526
99.43	520
99.44	518
99.45	537
99.46	561
99.47	551
99.48	553
99.49	570
99.5	595
99.51	585
99.52	543
99.53	525
99.54	572
99.55	574
99.56	547
99.57	537
99.58	541
99.59	585
99.6	553
99.61	571
99.62	564
99.63	590
99.64	560
99.65	559
99.66	572
99.67	573
99.68	572
99.69	566
99.7	555
99.71	538
99.72	525
99.73	544
99.74	542
99.75	540
99.76	530
99.77	539
99.78	541
99.79	551
99.8	554
99.81	573
99.82	559
99.83	549
99.84	546
99.85	551
99.86	558
99.87	545
99.88	539
99.89	535
99.9	527
99.91	539
99.92	561
99.93	541
99.94	556
99.95	557
99.96	546
99.97	561
99.98	570
99.99	579
100.0	534
