Single_LiF_long_scan
Wavelength = 1.54059 Ã… (Cu)
10.0	4899
10.01	4987
10.02	5096
10.03	5092
10.04	5056
10.05	4985
10.06	5028
10.07	5063
10.08	5009
10.09	5055
10.1	5085
10.11	5076
10.12	5009
10.13	5133
10.14	5142
10.15	5156
10.16	5139
10.17	5080
10.18	5107
10.19	5103
10.2	5135
10.21	5117
10.22	5173
10.23	5223
10.24	5190
10.25	5177
10.26	5233
10.27	5190
10.28	5179
10.29	5269
10.3	5240
10.31	5145
10.32	5148
10.33	5135
10.34	5208
10.35	5289
10.36	5282
10.37	5269
10.38	5177
10.39	5239
10.4	5274
10.41	5292
10.42	5359
10.43	5299
10.44	5201
10.45	5211
10.46	5248
10.47	5320
10.48	5319
10.49	5392
10.5	5296
10.51	5241
10.52	5322
10.53	5340
10.54	5360
10.55	5345
10.56	5375
10.57	5407
10.58	5344
10.59	5404
10.6	5451
10.61	5496
10.62	5462
10.63	5410
10.64	5463
10.65	5515
10.66	5481
10.67	5506
10.68	5578
10.69	5660
10.7	5598
10.71	5576
10.72	5563
10.73	5524
10.74	5548
10.75	5544
10.76	5581
10.77	5529
10.78	5569
10.79	5586
10.8	5641
10.81	5740
10.82	5728
10.83	5659
10.84	5632
10.85	5657
10.86	5695
10.87	5663
10.88	5584
10.89	5535
10.9	5578
10.91	5653
10.92	5701
10.93	5629
10.94	5635
10.95	5680
10.96	5785
10.97	5722
10.98	5708
10.99	5728
11.0	5767
11.01	5758
11.02	5663
11.03	5740
11.04	5760
11.05	5679
11.06	5708
11.07	5785
11.08	5896
11.09	5942
11.1	5877
11.11	5828
11.12	5802
11.13	5757
11.14	5812
11.15	5802
11.16	5842
11.17	5847
11.18	5965
11.19	5918
11.2	5869
11.21	5837
11.22	5988
11.23	5901
11.24	6048
11.25	5926
11.26	5951
11.27	5890
11.28	5824
11.29	5967
11.3	6054
11.31	6015
11.32	5979
11.33	5932
11.34	6016
11.35	5934
11.36	6025
11.37	6115
11.38	6088
11.39	6079
11.4	6168
11.41	6117
11.42	6049
11.43	6118
11.44	6179
11.45	6110
11.46	6086
11.47	6144
11.48	6113
11.49	6249
11.5	6227
11.51	6137
11.52	6132
11.53	6124
11.54	6179
11.55	6190
11.56	6215
11.57	6233
11.58	6209
11.59	6214
11.6	6233
11.61	6140
11.62	6161
11.63	6179
11.64	6276
11.65	6350
11.66	6313
11.67	6329
11.68	6393
11.69	6374
11.7	6336
11.71	6416
11.72	6409
11.73	6388
11.74	6374
11.75	6345
11.76	6288
11.77	6409
11.78	6383
11.79	6497
11.8	6458
11.81	6464
11.82	6543
11.83	6499
11.84	6447
11.85	6475
11.86	6434
11.87	6386
11.88	6448
11.89	6403
11.9	6440
11.91	6510
11.92	6543
11.93	6496
11.94	6369
11.95	6481
11.96	6644
11.97	6594
11.98	6570
11.99	6621
12.0	6554
12.01	6610
12.02	6551
12.03	6579
12.04	6634
12.05	6646
12.06	6776
12.07	6673
12.08	6662
12.09	6559
12.1	6580
12.11	6746
12.12	6703
12.13	6639
12.14	6709
12.15	6821
12.16	6837
12.17	6838
12.18	6782
12.19	6773
12.2	6812
12.21	6836
12.22	6959
12.23	6906
12.24	6783
12.25	6792
12.26	6797
12.27	6912
12.28	6984
12.29	6871
12.3	6837
12.31	6973
12.32	6971
12.33	6986
12.34	6921
12.35	6906
12.36	6953
12.37	7008
12.38	7011
12.39	7024
12.4	7177
12.41	7115
12.42	7010
12.43	7067
12.44	7130
12.45	7085
12.46	7145
12.47	7221
12.48	7118
12.49	7051
12.5	7005
12.51	7178
12.52	7211
12.53	7169
12.54	7234
12.55	7261
12.56	7168
12.57	7209
12.58	7271
12.59	7300
12.6	7445
12.61	7529
12.62	7450
12.63	7466
12.64	7511
12.65	7445
12.66	7416
12.67	7454
12.68	7421
12.69	7413
12.7	7352
12.71	7401
12.72	7533
12.73	7634
12.74	7627
12.75	7618
12.76	7623
12.77	7685
12.78	7731
12.79	7815
12.8	7741
12.81	7694
12.82	7814
12.83	7793
12.84	7830
12.85	7842
12.86	7859
12.87	7948
12.88	7995
12.89	8012
12.9	8073
12.91	8103
12.92	8172
12.93	8145
12.94	8181
12.95	8212
12.96	8248
12.97	8288
12.98	8284
12.99	8236
13.0	8211
13.01	8389
13.02	8340
13.03	8326
13.04	8422
13.05	8376
13.06	8470
13.07	8402
13.08	8512
13.09	8642
13.1	8640
13.11	8608
13.12	8558
13.13	8592
13.14	8712
13.15	8757
13.16	8835
13.17	8840
13.18	8867
13.19	8946
13.2	9011
13.21	9041
13.22	9047
13.23	9105
13.24	9177
13.25	9119
13.26	9133
13.27	9265
13.28	9163
13.29	9369
13.3	9357
13.31	9384
13.32	9466
13.33	9404
13.34	9416
13.35	9490
13.36	9433
13.37	9460
13.38	9661
13.39	9867
13.4	9930
13.41	9791
13.42	9713
13.43	9848
13.44	9904
13.45	9851
13.46	9895
13.47	10108
13.48	10074
13.49	10206
13.5	10247
13.51	10324
13.52	10416
13.53	10333
13.54	10370
13.55	10388
13.56	10525
13.57	10648
13.58	10585
13.59	10568
13.6	10589
13.61	10702
13.62	10747
13.63	10778
13.64	10852
13.65	10859
13.66	10992
13.67	11126
13.68	11117
13.69	11256
13.7	11166
13.71	11167
13.72	11326
13.73	11291
13.74	11460
13.75	11517
13.76	11304
13.77	11427
13.78	11592
13.79	11751
13.8	11695
13.81	11606
13.82	11599
13.83	11672
13.84	11872
13.85	11926
13.86	11935
13.87	12015
13.88	12116
13.89	12176
13.9	12102
13.91	12194
13.92	12188
13.93	12259
13.94	12311
13.95	12309
13.96	12366
13.97	12470
13.98	12389
13.99	12339
14.0	12461
14.01	12666
14.02	12653
14.03	12602
14.04	12708
14.05	12733
14.06	12842
14.07	12826
14.08	12770
14.09	12893
14.1	12926
14.11	12905
14.12	12946
14.13	12987
14.14	13159
14.15	13133
14.16	13109
14.17	13110
14.18	13178
14.19	13252
14.2	13305
14.21	13392
14.22	13359
14.23	13337
14.24	13327
14.25	13315
14.26	13355
14.27	13481
14.28	13480
14.29	13563
14.3	13644
14.31	13741
14.32	13612
14.33	13550
14.34	13699
14.35	13605
14.36	13689
14.37	13787
14.38	13716
14.39	13687
14.4	13781
14.41	13849
14.42	13798
14.43	13719
14.44	13811
14.45	13928
14.46	13990
14.47	13992
14.48	13928
14.49	13895
14.5	14022
14.51	13986
14.52	13993
14.53	13976
14.54	13969
14.55	13926
14.56	14003
14.57	14061
14.58	14017
14.59	13945
14.6	13942
14.61	14039
14.62	14079
14.63	14009
14.64	13994
14.65	14125
14.66	14122
14.67	14141
14.68	14159
14.69	14175
14.7	14150
14.71	14129
14.72	14078
14.73	14038
14.74	13984
14.75	14001
14.76	14028
14.77	13989
14.78	14091
14.79	14158
14.8	14090
14.81	14089
14.82	14059
14.83	14130
14.84	14040
14.85	13954
14.86	14064
14.87	14219
14.88	14126
14.89	14018
14.9	14019
14.91	14054
14.92	13980
14.93	13979
14.94	14047
14.95	14139
14.96	13953
14.97	13908
14.98	13829
14.99	13902
15.0	13893
15.01	13833
15.02	13951
15.03	14089
15.04	14033
15.05	13952
15.06	13904
15.07	13962
15.08	13889
15.09	13879
15.1	13784
15.11	13738
15.12	13912
15.13	13949
15.14	13922
15.15	13900
15.16	13875
15.17	13839
15.18	13750
15.19	13737
15.2	13741
15.21	13812
15.22	13792
15.23	13763
15.24	13774
15.25	13778
15.26	13822
15.27	13809
15.28	13712
15.29	13680
15.3	13644
15.31	13647
15.32	13675
15.33	13743
15.34	13795
15.35	13702
15.36	13593
15.37	13609
15.38	13615
15.39	13624
15.4	13676
15.41	13604
15.42	13532
15.43	13670
15.44	13641
15.45	13588
15.46	13583
15.47	13498
15.48	13530
15.49	13558
15.5	13545
15.51	13512
15.52	13409
15.53	13361
15.54	13315
15.55	13308
15.56	13250
15.57	13268
15.58	13326
15.59	13314
15.6	13290
15.61	13256
15.62	13311
15.63	13314
15.64	13304
15.65	13257
15.66	13143
15.67	13150
15.68	13188
15.69	13181
15.7	13278
15.71	13269
15.72	13247
15.73	13263
15.74	13175
15.75	13193
15.76	13296
15.77	13327
15.78	13173
15.79	13067
15.8	12995
15.81	13027
15.82	13100
15.83	13205
15.84	13187
15.85	13200
15.86	13105
15.87	13148
15.88	13082
15.89	13053
15.9	13120
15.91	13025
15.92	13018
15.93	13001
15.94	13028
15.95	13171
15.96	13135
15.97	12979
15.98	13007
15.99	13014
16.0	12918
16.01	12769
16.02	12765
16.03	12911
16.04	12980
16.05	12903
16.06	12851
16.07	12929
16.08	12912
16.09	12875
16.1	12856
16.11	12831
16.12	12873
16.13	12923
16.14	12928
16.15	12872
16.16	12755
16.17	12835
16.18	12940
16.19	12937
16.2	12929
16.21	12930
16.22	12900
16.23	12850
16.24	12808
16.25	12797
16.26	12791
16.27	12855
16.28	12938
16.29	12998
16.3	12958
16.31	12840
16.32	12789
16.33	12770
16.34	12847
16.35	12843
16.36	12729
16.37	12782
16.38	12891
16.39	12857
16.4	12778
16.41	12780
16.42	12755
16.43	12764
16.44	12835
16.45	12947
16.46	12960
16.47	12850
16.48	12867
16.49	12877
16.5	12793
16.51	12760
16.52	12850
16.53	12877
16.54	12892
16.55	12873
16.56	12817
16.57	12765
16.58	12842
16.59	12919
16.6	12952
16.61	12889
16.62	12881
16.63	12859
16.64	12880
16.65	12929
16.66	12979
16.67	13061
16.68	12991
16.69	12909
16.7	12824
16.71	12748
16.72	12822
16.73	12932
16.74	12955
16.75	12860
16.76	12769
16.77	12776
16.78	12762
16.79	12813
16.8	12925
16.81	12942
16.82	12926
16.83	12845
16.84	12844
16.85	12989
16.86	12991
16.87	12890
16.88	12787
16.89	12798
16.9	12840
16.91	12830
16.92	12825
16.93	12828
16.94	12816
16.95	12832
16.96	12842
16.97	12780
16.98	12809
16.99	12916
17.0	12964
17.01	12897
17.02	12825
17.03	12876
17.04	12949
17.05	12952
17.06	12877
17.07	12809
17.08	12906
17.09	12970
17.1	12972
17.11	12893
17.12	12884
17.13	12979
17.14	13006
17.15	12999
17.16	12954
17.17	12967
17.18	13026
17.19	13007
17.2	12906
17.21	12896
17.22	12952
17.23	13033
17.24	13113
17.25	13051
17.26	12959
17.27	12884
17.28	12778
17.29	12882
17.3	13081
17.31	13076
17.32	12970
17.33	13007
17.34	13010
17.35	12967
17.36	13043
17.37	13065
17.38	12988
17.39	13022
17.4	13116
17.41	13106
17.42	13118
17.43	13110
17.44	13054
17.45	13041
17.46	13048
17.47	13083
17.48	13115
17.49	13093
17.5	13104
17.51	13072
17.52	13076
17.53	13107
17.54	13051
17.55	13074
17.56	13094
17.57	13040
17.58	13007
17.59	13120
17.6	13238
17.61	13192
17.62	13119
17.63	13072
17.64	13060
17.65	13063
17.66	13066
17.67	13112
17.68	13199
17.69	13279
17.7	13230
17.71	13107
17.72	13046
17.73	13067
17.74	13116
17.75	13134
17.76	13134
17.77	13145
17.78	13259
17.79	13317
17.8	13264
17.81	13264
17.82	13262
17.83	13233
17.84	13280
17.85	13252
17.86	13163
17.87	13265
17.88	13393
17.89	13364
17.9	13368
17.91	13388
17.92	13349
17.93	13372
17.94	13424
17.95	13305
17.96	13148
17.97	13196
17.98	13303
17.99	13262
18.0	13291
18.01	13392
18.02	13374
18.03	13353
18.04	13353
18.05	13419
18.06	13395
18.07	13317
18.08	13313
18.09	13371
18.1	13311
18.11	13261
18.12	13303
18.13	13325
18.14	13297
18.15	13231
18.16	13207
18.17	13241
18.18	13322
18.19	13333
18.2	13312
18.21	13298
18.22	13325
18.23	13313
18.24	13281
18.25	13358
18.26	13387
18.27	13415
18.28	13408
18.29	13317
18.3	13288
18.31	13272
18.32	13267
18.33	13315
18.34	13374
18.35	13440
18.36	13371
18.37	13355
18.38	13403
18.39	13374
18.4	13441
18.41	13448
18.42	13355
18.43	13373
18.44	13409
18.45	13443
18.46	13351
18.47	13332
18.48	13385
18.49	13395
18.5	13432
18.51	13526
18.52	13521
18.53	13450
18.54	13502
18.55	13512
18.56	13468
18.57	13423
18.58	13373
18.59	13405
18.6	13396
18.61	13385
18.62	13310
18.63	13293
18.64	13325
18.65	13348
18.66	13308
18.67	13329
18.68	13414
18.69	13488
18.7	13484
18.71	13479
18.72	13435
18.73	13455
18.74	13526
18.75	13454
18.76	13372
18.77	13439
18.78	13352
18.79	13262
18.8	13358
18.81	13426
18.82	13461
18.83	13514
18.84	13504
18.85	13452
18.86	13416
18.87	13351
18.88	13305
18.89	13412
18.9	13386
18.91	13350
18.92	13354
18.93	13339
18.94	13360
18.95	13458
18.96	13465
18.97	13376
18.98	13433
18.99	13512
19.0	13443
19.01	13386
19.02	13408
19.03	13399
19.04	13451
19.05	13471
19.06	13511
19.07	13421
19.08	13417
19.09	13385
19.1	13353
19.11	13289
19.12	13325
19.13	13428
19.14	13347
19.15	13377
19.16	13434
19.17	13431
19.18	13378
19.19	13424
19.2	13443
19.21	13305
19.22	13383
19.23	13433
19.24	13402
19.25	13385
19.26	13381
19.27	13339
19.28	13372
19.29	13408
19.3	13354
19.31	13411
19.32	13454
19.33	13427
19.34	13403
19.35	13355
19.36	13312
19.37	13328
19.38	13351
19.39	13345
19.4	13384
19.41	13382
19.42	13302
19.43	13430
19.44	13369
19.45	13249
19.46	13328
19.47	13289
19.48	13214
19.49	13246
19.5	13365
19.51	13496
19.52	13428
19.53	13465
19.54	13544
19.55	13525
19.56	13400
19.57	13312
19.58	13364
19.59	13444
19.6	13381
19.61	13283
19.62	13219
19.63	13315
19.64	13412
19.65	13328
19.66	13277
19.67	13383
19.68	13368
19.69	13390
19.7	13364
19.71	13269
19.72	13250
19.73	13248
19.74	13250
19.75	13349
19.76	13432
19.77	13444
19.78	13372
19.79	13270
19.8	13236
19.81	13281
19.82	13266
19.83	13252
19.84	13393
19.85	13343
19.86	13315
19.87	13366
19.88	13380
19.89	13393
19.9	13414
19.91	13304
19.92	13317
19.93	13258
19.94	13350
19.95	13390
19.96	13419
19.97	13426
19.98	13309
19.99	13203
20.0	13188
20.01	13220
20.02	13214
20.03	13250
20.04	13231
20.05	13223
20.06	13168
20.07	13271
20.08	13288
20.09	13283
20.1	13373
20.11	13385
20.12	13441
20.13	13456
20.14	13347
20.15	13205
20.16	13284
20.17	13231
20.18	13248
20.19	13369
20.2	13389
20.21	13372
20.22	13379
20.23	13294
20.24	13243
20.25	13309
20.26	13303
20.27	13280
20.28	13266
20.29	13243
20.3	13200
20.31	13175
20.32	13223
20.33	13325
20.34	13360
20.35	13313
20.36	13233
20.37	13133
20.38	13186
20.39	13298
20.4	13321
20.41	13327
20.42	13325
20.43	13367
20.44	13407
20.45	13330
20.46	13395
20.47	13432
20.48	13459
20.49	13348
20.5	13356
20.51	13328
20.52	13390
20.53	13390
20.54	13459
20.55	13416
20.56	13345
20.57	13419
20.58	13457
20.59	13415
20.6	13404
20.61	13455
20.62	13437
20.63	13457
20.64	13533
20.65	13579
20.66	13561
20.67	13424
20.68	13428
20.69	13540
20.7	13529
20.71	13502
20.72	13518
20.73	13477
20.74	13619
20.75	13508
20.76	13706
20.77	13572
20.78	13465
20.79	13530
20.8	13532
20.81	13503
20.82	13539
20.83	13547
20.84	13570
20.85	13591
20.86	13564
20.87	13534
20.88	13570
20.89	13646
20.9	13696
20.91	13838
20.92	13828
20.93	13704
20.94	13688
20.95	13785
20.96	13864
20.97	13838
20.98	13756
20.99	13777
21.0	13767
21.01	13825
21.02	13950
21.03	13929
21.04	13888
21.05	13899
21.06	13909
21.07	13901
21.08	13959
21.09	14015
21.1	13919
21.11	13970
21.12	14158
21.13	14123
21.14	14053
21.15	14051
21.16	14150
21.17	14216
21.18	14076
21.19	14111
21.2	14102
21.21	14193
21.22	14326
21.23	14309
21.24	14215
21.25	14002
21.26	14040
21.27	14107
21.28	14224
21.29	14302
21.3	14314
21.31	14114
21.32	14154
21.33	14331
21.34	14235
21.35	14191
21.36	14180
21.37	14174
21.38	14224
21.39	14216
21.4	14323
21.41	14442
21.42	14326
21.43	14279
21.44	14392
21.45	14398
21.46	14412
21.47	14408
21.48	14333
21.49	14335
21.5	14448
21.51	14318
21.52	14447
21.53	14523
21.54	14520
21.55	14467
21.56	14490
21.57	14561
21.58	14513
21.59	14429
21.6	14467
21.61	14457
21.62	14460
21.63	14524
21.64	14531
21.65	14434
21.66	14545
21.67	14667
21.68	14619
21.69	14599
21.7	14550
21.71	14626
21.72	14694
21.73	14585
21.74	14506
21.75	14395
21.76	14555
21.77	14469
21.78	14503
21.79	14511
21.8	14590
21.81	14664
21.82	14539
21.83	14471
21.84	14528
21.85	14527
21.86	14433
21.87	14496
21.88	14485
21.89	14518
21.9	14414
21.91	14503
21.92	14479
21.93	14490
21.94	14440
21.95	14447
21.96	14405
21.97	14468
21.98	14497
21.99	14486
22.0	14474
22.01	14542
22.02	14367
22.03	14484
22.04	14391
22.05	14361
22.06	14303
22.07	14282
22.08	14268
22.09	14230
22.1	14335
22.11	14291
22.12	14269
22.13	14257
22.14	14044
22.15	14058
22.16	14197
22.17	14209
22.18	14088
22.19	14039
22.2	14237
22.21	14220
22.22	14247
22.23	14106
22.24	13952
22.25	14124
22.26	14164
22.27	14150
22.28	13953
22.29	13762
22.3	13763
22.31	13851
22.32	13848
22.33	13887
22.34	13895
22.35	13785
22.36	13699
22.37	13739
22.38	13865
22.39	13805
22.4	13735
22.41	13644
22.42	13639
22.43	13471
22.44	13500
22.45	13474
22.46	13553
22.47	13504
22.48	13523
22.49	13418
22.5	13471
22.51	13467
22.52	13384
22.53	13329
22.54	13404
22.55	13183
22.56	13176
22.57	13353
22.58	13125
22.59	13159
22.6	13120
22.61	13072
22.62	13194
22.63	13125
22.64	13127
22.65	12893
22.66	12775
22.67	12944
22.68	12846
22.69	12860
22.7	12826
22.71	12734
22.72	12895
22.73	12912
22.74	12641
22.75	12641
22.76	12658
22.77	12655
22.78	12544
22.79	12518
22.8	12492
22.81	12537
22.82	12555
22.83	12477
22.84	12388
22.85	12345
22.86	12259
22.87	12356
22.88	12308
22.89	12360
22.9	12296
22.91	12155
22.92	12205
22.93	12126
22.94	12071
22.95	11953
22.96	11990
22.97	11932
22.98	11898
22.99	11957
23.0	12000
23.01	11889
23.02	11810
23.03	11825
23.04	11951
23.05	11859
23.06	11843
23.07	11821
23.08	11623
23.09	11571
23.1	11568
23.11	11531
23.12	11520
23.13	11616
23.14	11700
23.15	11601
23.16	11538
23.17	11365
23.18	11374
23.19	11205
23.2	11282
23.21	11229
23.22	11359
23.23	11264
23.24	11209
23.25	11093
23.26	11112
23.27	11064
23.28	10986
23.29	10999
23.3	11041
23.31	11094
23.32	11058
23.33	10913
23.34	10834
23.35	10948
23.36	10980
23.37	10956
23.38	10858
23.39	10901
23.4	10902
23.41	10842
23.42	10789
23.43	10733
23.44	10693
23.45	10731
23.46	10840
23.47	10724
23.48	10617
23.49	10509
23.5	10563
23.51	10576
23.52	10655
23.53	10597
23.54	10469
23.55	10414
23.56	10400
23.57	10322
23.58	10234
23.59	10180
23.6	10232
23.61	10421
23.62	10442
23.63	10343
23.64	10123
23.65	10175
23.66	10218
23.67	10257
23.68	10221
23.69	10165
23.7	10159
23.71	10165
23.72	10176
23.73	10245
23.74	10138
23.75	10106
23.76	10033
23.77	10045
23.78	10020
23.79	9944
23.8	9857
23.81	9849
23.82	9900
23.83	9827
23.84	9858
23.85	9723
23.86	9677
23.87	9710
23.88	9839
23.89	9896
23.9	9896
23.91	9746
23.92	9658
23.93	9771
23.94	9745
23.95	9709
23.96	9663
23.97	9693
23.98	9646
23.99	9724
24.0	9724
24.01	9594
24.02	9574
24.03	9568
24.04	9595
24.05	9547
24.06	9449
24.07	9539
24.08	9511
24.09	9481
24.1	9459
24.11	9375
24.12	9465
24.13	9352
24.14	9420
24.15	9469
24.16	9430
24.17	9463
24.18	9440
24.19	9305
24.2	9319
24.21	9430
24.22	9415
24.23	9351
24.24	9374
24.25	9420
24.26	9376
24.27	9264
24.28	9278
24.29	9378
24.3	9418
24.31	9334
24.32	9371
24.33	9353
24.34	9296
24.35	9252
24.36	9227
24.37	9311
24.38	9267
24.39	9157
24.4	9185
24.41	9301
24.42	9258
24.43	9224
24.44	9208
24.45	9237
24.46	9312
24.47	9246
24.48	9133
24.49	9185
24.5	9114
24.51	9111
24.52	9142
24.53	9146
24.54	9198
24.55	9182
24.56	9135
24.57	9113
24.58	9052
24.59	8997
24.6	9044
24.61	9182
24.62	9153
24.63	9089
24.64	9128
24.65	9107
24.66	9159
24.67	9176
24.68	9112
24.69	9117
24.7	9085
24.71	9061
24.72	9086
24.73	9133
24.74	9075
24.75	9113
24.76	9075
24.77	9076
24.78	9142
24.79	9138
24.8	9090
24.81	9066
24.82	9144
24.83	9244
24.84	9207
24.85	9176
24.86	9056
24.87	9079
24.88	9177
24.89	9131
24.9	9033
24.91	9061
24.92	9086
24.93	9119
24.94	9086
24.95	9128
24.96	8986
24.97	8956
24.98	8999
24.99	9154
25.0	9046
25.01	9052
25.02	9164
25.03	9222
25.04	9303
25.05	9184
25.06	9086
25.07	9164
25.08	9183
25.09	9088
25.1	9054
25.11	9087
25.12	9170
25.13	9139
25.14	9132
25.15	9158
25.16	9139
25.17	9124
25.18	9053
25.19	9028
25.2	9159
25.21	9140
25.22	9072
25.23	9132
25.24	9241
25.25	9293
25.26	9229
25.27	9144
25.28	9115
25.29	9142
25.3	9201
25.31	9173
25.32	9177
25.33	9175
25.34	9104
25.35	9205
25.36	9234
25.37	9211
25.38	9245
25.39	9123
25.4	9111
25.41	9174
25.42	9143
25.43	9302
25.44	9354
25.45	9246
25.46	9248
25.47	9351
25.48	9377
25.49	9357
25.5	9287
25.51	9315
25.52	9314
25.53	9323
25.54	9335
25.55	9261
25.56	9179
25.57	9244
25.58	9309
25.59	9287
25.6	9316
25.61	9282
25.62	9295
25.63	9289
25.64	9320
25.65	9354
25.66	9353
25.67	9380
25.68	9372
25.69	9342
25.7	9340
25.71	9388
25.72	9382
25.73	9343
25.74	9341
25.75	9297
25.76	9282
25.77	9231
25.78	9225
25.79	9257
25.8	9289
25.81	9277
25.82	9307
25.83	9342
25.84	9366
25.85	9337
25.86	9345
25.87	9360
25.88	9359
25.89	9451
25.9	9485
25.91	9477
25.92	9424
25.93	9359
25.94	9340
25.95	9268
25.96	9189
25.97	9228
25.98	9310
25.99	9325
26.0	9327
26.01	9367
26.02	9372
26.03	9304
26.04	9346
26.05	9309
26.06	9266
26.07	9263
26.08	9379
26.09	9453
26.1	9438
26.11	9386
26.12	9329
26.13	9247
26.14	9232
26.15	9227
26.16	9216
26.17	9287
26.18	9358
26.19	9292
26.2	9194
26.21	9140
26.22	9111
26.23	9153
26.24	9191
26.25	9225
26.26	9173
26.27	9149
26.28	9158
26.29	9072
26.3	9076
26.31	9139
26.32	9144
26.33	9098
26.34	9066
26.35	9134
26.36	9176
26.37	9095
26.38	9035
26.39	9010
26.4	8987
26.41	8926
26.42	8995
26.43	9008
26.44	8954
26.45	8957
26.46	8945
26.47	9004
26.48	9009
26.49	8981
26.5	8918
26.51	8892
26.52	8907
26.53	8893
26.54	8823
26.55	8750
26.56	8769
26.57	8828
26.58	8790
26.59	8783
26.6	8820
26.61	8762
26.62	8753
26.63	8731
26.64	8667
26.65	8597
26.66	8603
26.67	8690
26.68	8741
26.69	8658
26.7	8591
26.71	8607
26.72	8550
26.73	8511
26.74	8504
26.75	8509
26.76	8479
26.77	8438
26.78	8457
26.79	8467
26.8	8455
26.81	8399
26.82	8362
26.83	8346
26.84	8377
26.85	8354
26.86	8260
26.87	8229
26.88	8205
26.89	8200
26.9	8181
26.91	8197
26.92	8208
26.93	8153
26.94	8154
26.95	8144
26.96	8077
26.97	8047
26.98	8064
26.99	8038
27.0	7991
27.01	7949
27.02	7982
27.03	7962
27.04	7882
27.05	7894
27.06	7930
27.07	7867
27.08	7785
27.09	7711
27.1	7661
27.11	7657
27.12	7670
27.13	7626
27.14	7648
27.15	7749
27.16	7733
27.17	7720
27.18	7674
27.19	7612
27.2	7637
27.21	7642
27.22	7631
27.23	7644
27.24	7654
27.25	7605
27.26	7524
27.27	7445
27.28	7406
27.29	7391
27.3	7323
27.31	7352
27.32	7387
27.33	7399
27.34	7421
27.35	7352
27.36	7272
27.37	7261
27.38	7285
27.39	7268
27.4	7189
27.41	7123
27.42	7187
27.43	7264
27.44	7239
27.45	7183
27.46	7145
27.47	7108
27.48	7123
27.49	7100
27.5	7042
27.51	7070
27.52	7009
27.53	6922
27.54	6925
27.55	6924
27.56	6925
27.57	6904
27.58	6894
27.59	6905
27.6	6954
27.61	6954
27.62	6869
27.63	6817
27.64	6820
27.65	6825
27.66	6769
27.67	6723
27.68	6735
27.69	6754
27.7	6786
27.71	6736
27.72	6690
27.73	6719
27.74	6728
27.75	6695
27.76	6684
27.77	6612
27.78	6578
27.79	6597
27.8	6607
27.81	6586
27.82	6572
27.83	6577
27.84	6542
27.85	6551
27.86	6507
27.87	6434
27.88	6484
27.89	6486
27.9	6462
27.91	6460
27.92	6431
27.93	6411
27.94	6405
27.95	6364
27.96	6307
27.97	6300
27.98	6275
27.99	6289
28.0	6342
28.01	6358
28.02	6255
28.03	6199
28.04	6235
28.05	6202
28.06	6198
28.07	6234
28.08	6198
28.09	6173
28.1	6172
28.11	6171
28.12	6140
28.13	6103
28.14	6076
28.15	6024
28.16	6128
28.17	6150
28.18	6114
28.19	6077
28.2	6034
28.21	6076
28.22	6000
28.23	5950
28.24	6028
28.25	6059
28.26	5914
28.27	5827
28.28	5877
28.29	5945
28.3	5928
28.31	5847
28.32	5855
28.33	5910
28.34	5841
28.35	5822
28.36	5875
28.37	5885
28.38	5849
28.39	5756
28.4	5691
28.41	5783
28.42	5825
28.43	5770
28.44	5780
28.45	5768
28.46	5743
28.47	5715
28.48	5694
28.49	5693
28.5	5643
28.51	5627
28.52	5612
28.53	5649
28.54	5684
28.55	5659
28.56	5700
28.57	5716
28.58	5679
28.59	5653
28.6	5637
28.61	5615
28.62	5546
28.63	5533
28.64	5606
28.65	5632
28.66	5657
28.67	5674
28.68	5690
28.69	5689
28.7	5563
28.71	5445
28.72	5458
28.73	5536
28.74	5539
28.75	5398
28.76	5354
28.77	5382
28.78	5441
28.79	5417
28.8	5331
28.81	5353
28.82	5412
28.83	5379
28.84	5348
28.85	5377
28.86	5297
28.87	5288
28.88	5333
28.89	5346
28.9	5310
28.91	5275
28.92	5271
28.93	5320
28.94	5348
28.95	5250
28.96	5216
28.97	5183
28.98	5207
28.99	5237
29.0	5190
29.01	5152
29.02	5184
29.03	5182
29.04	5151
29.05	5082
29.06	5104
29.07	5153
29.08	5168
29.09	5185
29.1	5152
29.11	5097
29.12	5098
29.13	5117
29.14	5139
29.15	5158
29.16	5058
29.17	5015
29.18	5051
29.19	5049
29.2	5024
29.21	4995
29.22	5053
29.23	5069
29.24	5058
29.25	5054
29.26	5038
29.27	4983
29.28	4967
29.29	4985
29.3	4948
29.31	4963
29.32	4933
29.33	4868
29.34	4917
29.35	4956
29.36	5016
29.37	5054
29.38	4953
29.39	4870
29.4	4859
29.41	4828
29.42	4798
29.43	4797
29.44	4820
29.45	4801
29.46	4756
29.47	4732
29.48	4759
29.49	4858
29.5	4902
29.51	4797
29.52	4684
29.53	4683
29.54	4696
29.55	4716
29.56	4713
29.57	4669
29.58	4668
29.59	4653
29.6	4685
29.61	4643
29.62	4599
29.63	4573
29.64	4672
29.65	4669
29.66	4636
29.67	4646
29.68	4660
29.69	4631
29.7	4568
29.71	4568
29.72	4636
29.73	4607
29.74	4585
29.75	4536
29.76	4529
29.77	4515
29.78	4546
29.79	4578
29.8	4541
29.81	4484
29.82	4465
29.83	4512
29.84	4524
29.85	4488
29.86	4558
29.87	4517
29.88	4432
29.89	4510
29.9	4501
29.91	4409
29.92	4409
29.93	4403
29.94	4401
29.95	4393
29.96	4443
29.97	4503
29.98	4422
29.99	4385
30.0	4425
30.01	4388
30.02	4335
30.03	4332
30.04	4312
30.05	4332
30.06	4271
30.07	4322
30.08	4354
30.09	4337
30.1	4337
30.11	4288
30.12	4350
30.13	4310
30.14	4333
30.15	4340
30.16	4269
30.17	4249
30.18	4199
30.19	4217
30.2	4315
30.21	4346
30.22	4310
30.23	4261
30.24	4244
30.25	4149
30.26	4183
30.27	4196
30.28	4223
30.29	4247
30.3	4243
30.31	4210
30.32	4132
30.33	4101
30.34	4151
30.35	4194
30.36	4210
30.37	4146
30.38	4123
30.39	4130
30.4	4163
30.41	4093
30.42	4128
30.43	4132
30.44	4091
30.45	4147
30.46	4084
30.47	4134
30.48	4155
30.49	4114
30.5	4066
30.51	4037
30.52	4067
30.53	4095
30.54	4077
30.55	3975
30.56	3968
30.57	4039
30.58	3996
30.59	4039
30.6	4031
30.61	4040
30.62	4063
30.63	3979
30.64	4001
30.65	4073
30.66	4098
30.67	4065
30.68	4003
30.69	3975
30.7	3910
30.71	3963
30.72	3941
30.73	3980
30.74	4014
30.75	3974
30.76	3951
30.77	3948
30.78	3903
30.79	3944
30.8	3969
30.81	3949
30.82	3896
30.83	3882
30.84	3940
30.85	3925
30.86	3818
30.87	3898
30.88	3895
30.89	3836
30.9	3870
30.91	3846
30.92	3878
30.93	3875
30.94	3914
30.95	3880
30.96	3877
30.97	3826
30.98	3790
30.99	3773
31.0	3769
31.01	3813
31.02	3785
31.03	3793
31.04	3769
31.05	3740
31.06	3729
31.07	3665
31.08	3752
31.09	3813
31.1	3746
31.11	3686
31.12	3674
31.13	3797
31.14	3782
31.15	3704
31.16	3620
31.17	3643
31.18	3711
31.19	3621
31.2	3661
31.21	3646
31.22	3663
31.23	3668
31.24	3684
31.25	3656
31.26	3618
31.27	3652
31.28	3714
31.29	3701
31.3	3695
31.31	3620
31.32	3673
31.33	3649
31.34	3706
31.35	3694
31.36	3570
31.37	3543
31.38	3598
31.39	3579
31.4	3601
31.41	3675
31.42	3622
31.43	3603
31.44	3616
31.45	3585
31.46	3586
31.47	3552
31.48	3537
31.49	3605
31.5	3624
31.51	3498
31.52	3483
31.53	3472
31.54	3587
31.55	3508
31.56	3506
31.57	3549
31.58	3579
31.59	3544
31.6	3551
31.61	3554
31.62	3553
31.63	3566
31.64	3518
31.65	3533
31.66	3510
31.67	3522
31.68	3562
31.69	3546
31.7	3504
31.71	3483
31.72	3478
31.73	3542
31.74	3495
31.75	3469
31.76	3474
31.77	3490
31.78	3578
31.79	3449
31.8	3413
31.81	3408
31.82	3444
31.83	3480
31.84	3480
31.85	3390
31.86	3389
31.87	3429
31.88	3386
31.89	3349
31.9	3400
31.91	3343
31.92	3401
31.93	3453
31.94	3364
31.95	3347
31.96	3360
31.97	3396
31.98	3342
31.99	3404
32.0	3421
32.01	3413
32.02	3366
32.03	3338
32.04	3366
32.05	3348
32.06	3358
32.07	3378
32.08	3351
32.09	3346
32.1	3269
32.11	3329
32.12	3409
32.13	3375
32.14	3405
32.15	3319
32.16	3270
32.17	3285
32.18	3354
32.19	3328
32.2	3291
32.21	3326
32.22	3236
32.23	3227
32.24	3233
32.25	3288
32.26	3286
32.27	3221
32.28	3236
32.29	3320
32.3	3287
32.31	3303
32.32	3254
32.33	3197
32.34	3221
32.35	3223
32.36	3282
32.37	3247
32.38	3198
32.39	3214
32.4	3274
32.41	3221
32.42	3263
32.43	3284
32.44	3214
32.45	3218
32.46	3227
32.47	3278
32.48	3317
32.49	3260
32.5	3205
32.51	3187
32.52	3191
32.53	3192
32.54	3227
32.55	3181
32.56	3237
32.57	3161
32.58	3161
32.59	3128
32.6	3184
32.61	3260
32.62	3146
32.63	3190
32.64	3195
32.65	3179
32.66	3209
32.67	3181
32.68	3163
32.69	3160
32.7	3196
32.71	3136
32.72	3100
32.73	3122
32.74	3105
32.75	3137
32.76	3146
32.77	3124
32.78	3088
32.79	3112
32.8	3125
32.81	3087
32.82	3043
32.83	3088
32.84	3128
32.85	3095
32.86	3108
32.87	3140
32.88	3098
32.89	3078
32.9	3087
32.91	3112
32.92	3091
32.93	3098
32.94	3066
32.95	3089
32.96	3121
32.97	3103
32.98	3072
32.99	3076
33.0	3063
33.01	3063
33.02	3028
33.03	3069
33.04	3056
33.05	3088
33.06	3031
33.07	3008
33.08	3051
33.09	3054
33.1	3056
33.11	3112
33.12	3127
33.13	3048
33.14	3005
33.15	3040
33.16	3011
33.17	3008
33.18	3068
33.19	3076
33.2	2987
33.21	3003
33.22	3054
33.23	3059
33.24	3073
33.25	3089
33.26	2936
33.27	3007
33.28	3014
33.29	2989
33.3	2933
33.31	2938
33.32	3004
33.33	3010
33.34	3015
33.35	3029
33.36	3018
33.37	2939
33.38	2981
33.39	2973
33.4	3002
33.41	3052
33.42	2950
33.43	2960
33.44	2957
33.45	3027
33.46	2987
33.47	2899
33.48	2916
33.49	2942
33.5	2913
33.51	2882
33.52	2923
33.53	2960
33.54	2948
33.55	2937
33.56	2933
33.57	2938
33.58	2909
33.59	2940
33.6	2988
33.61	2913
33.62	2898
33.63	2913
33.64	2870
33.65	2906
33.66	2926
33.67	2915
33.68	2910
33.69	2899
33.7	2954
33.71	2926
33.72	2874
33.73	2887
33.74	2884
33.75	2891
33.76	2893
33.77	2875
33.78	2875
33.79	2867
33.8	2968
33.81	2966
33.82	2869
33.83	2873
33.84	2911
33.85	2955
33.86	2872
33.87	2826
33.88	2865
33.89	2907
33.9	2896
33.91	2871
33.92	2849
33.93	2852
33.94	2892
33.95	2869
33.96	2846
33.97	2844
33.98	2848
33.99	2809
34.0	2799
34.01	2814
34.02	2872
34.03	2872
34.04	2855
34.05	2835
34.06	2886
34.07	2908
34.08	2910
34.09	2852
34.1	2795
34.11	2801
34.12	2853
34.13	2860
34.14	2869
34.15	2854
34.16	2873
34.17	2847
34.18	2797
34.19	2795
34.2	2853
34.21	2829
34.22	2802
34.23	2802
34.24	2845
34.25	2829
34.26	2851
34.27	2855
34.28	2829
34.29	2869
34.3	2862
34.31	2856
34.32	2875
34.33	2846
34.34	2778
34.35	2781
34.36	2858
34.37	2885
34.38	2854
34.39	2826
34.4	2798
34.41	2818
34.42	2836
34.43	2823
34.44	2774
34.45	2788
34.46	2784
34.47	2737
34.48	2755
34.49	2770
34.5	2820
34.51	2860
34.52	2831
34.53	2842
34.54	2848
34.55	2861
34.56	2863
34.57	2814
34.58	2815
34.59	2829
34.6	2795
34.61	2757
34.62	2737
34.63	2768
34.64	2796
34.65	2778
34.66	2769
34.67	2803
34.68	2815
34.69	2769
34.7	2793
34.71	2779
34.72	2737
34.73	2769
34.74	2799
34.75	2766
34.76	2755
34.77	2777
34.78	2781
34.79	2789
34.8	2817
34.81	2793
34.82	2760
34.83	2796
34.84	2797
34.85	2739
34.86	2721
34.87	2748
34.88	2763
34.89	2778
34.9	2759
34.91	2760
34.92	2801
34.93	2833
34.94	2787
34.95	2732
34.96	2742
34.97	2732
34.98	2732
34.99	2698
35.0	2638
35.01	2676
35.02	2717
35.03	2760
35.04	2785
35.05	2792
35.06	2805
35.07	2775
35.08	2794
35.09	2824
35.1	2792
35.11	2758
35.12	2744
35.13	2689
35.14	2698
35.15	2732
35.16	2771
35.17	2784
35.18	2792
35.19	2772
35.2	2733
35.21	2724
35.22	2746
35.23	2775
35.24	2762
35.25	2746
35.26	2733
35.27	2768
35.28	2796
35.29	2729
35.3	2675
35.31	2679
35.32	2722
35.33	2718
35.34	2704
35.35	2731
35.36	2742
35.37	2726
35.38	2751
35.39	2792
35.4	2753
35.41	2728
35.42	2746
35.43	2758
35.44	2735
35.45	2729
35.46	2726
35.47	2731
35.48	2721
35.49	2696
35.5	2719
35.51	2750
35.52	2751
35.53	2715
35.54	2708
35.55	2770
35.56	2766
35.57	2730
35.58	2749
35.59	2794
35.6	2826
35.61	2780
35.62	2715
35.63	2723
35.64	2763
35.65	2782
35.66	2785
35.67	2797
35.68	2812
35.69	2772
35.7	2742
35.71	2804
35.72	2841
35.73	2807
35.74	2804
35.75	2786
35.76	2754
35.77	2771
35.78	2781
35.79	2770
35.8	2703
35.81	2698
35.82	2726
35.83	2699
35.84	2706
35.85	2729
35.86	2725
35.87	2734
35.88	2738
35.89	2768
35.9	2780
35.91	2779
35.92	2763
35.93	2762
35.94	2750
35.95	2728
35.96	2723
35.97	2743
35.98	2738
35.99	2789
36.0	2794
36.01	2718
36.02	2682
36.03	2687
36.04	2681
36.05	2728
36.06	2795
36.07	2776
36.08	2745
36.09	2708
36.1	2667
36.11	2714
36.12	2724
36.13	2686
36.14	2699
36.15	2695
36.16	2676
36.17	2726
36.18	2750
36.19	2710
36.2	2699
36.21	2698
36.22	2699
36.23	2700
36.24	2668
36.25	2650
36.26	2667
36.27	2692
36.28	2707
36.29	2687
36.3	2652
36.31	2672
36.32	2715
36.33	2744
36.34	2735
36.35	2663
36.36	2648
36.37	2660
36.38	2645
36.39	2634
36.4	2635
36.41	2644
36.42	2656
36.43	2679
36.44	2722
36.45	2721
36.46	2670
36.47	2643
36.48	2609
36.49	2579
36.5	2579
36.51	2592
36.52	2616
36.53	2644
36.54	2640
36.55	2629
36.56	2624
36.57	2626
36.58	2671
36.59	2639
36.6	2544
36.61	2538
36.62	2581
36.63	2582
36.64	2561
36.65	2582
36.66	2614
36.67	2637
36.68	2653
36.69	2604
36.7	2576
36.71	2601
36.72	2564
36.73	2556
36.74	2594
36.75	2584
36.76	2579
36.77	2608
36.78	2601
36.79	2568
36.8	2570
36.81	2566
36.82	2557
36.83	2576
36.84	2571
36.85	2564
36.86	2586
36.87	2596
36.88	2553
36.89	2530
36.9	2535
36.91	2528
36.92	2543
36.93	2569
36.94	2540
36.95	2521
36.96	2568
36.97	2576
36.98	2523
36.99	2490
37.0	2537
37.01	2547
37.02	2474
37.03	2442
37.04	2456
37.05	2493
37.06	2505
37.07	2489
37.08	2526
37.09	2564
37.1	2542
37.11	2509
37.12	2481
37.13	2481
37.14	2505
37.15	2479
37.16	2447
37.17	2467
37.18	2500
37.19	2529
37.2	2516
37.21	2509
37.22	2511
37.23	2504
37.24	2528
37.25	2531
37.26	2496
37.27	2504
37.28	2548
37.29	2553
37.3	2529
37.31	2525
37.32	2528
37.33	2542
37.34	2587
37.35	2618
37.36	2615
37.37	2578
37.38	2593
37.39	2632
37.4	2620
37.41	2596
37.42	2591
37.43	2613
37.44	2606
37.45	2584
37.46	2564
37.47	2535
37.48	2505
37.49	2508
37.5	2526
37.51	2545
37.52	2577
37.53	2560
37.54	2570
37.55	2615
37.56	2590
37.57	2559
37.58	2557
37.59	2553
37.6	2550
37.61	2510
37.62	2507
37.63	2515
37.64	2518
37.65	2516
37.66	2511
37.67	2519
37.68	2554
37.69	2612
37.7	2609
37.71	2533
37.72	2487
37.73	2507
37.74	2533
37.75	2506
37.76	2510
37.77	2535
37.78	2551
37.79	2554
37.8	2538
37.81	2518
37.82	2518
37.83	2540
37.84	2495
37.85	2498
37.86	2526
37.87	2474
37.88	2452
37.89	2496
37.9	2556
37.91	2607
37.92	2597
37.93	2550
37.94	2543
37.95	2498
37.96	2511
37.97	2525
37.98	2566
37.99	2579
38.0	2548
38.01	2502
38.02	2464
38.03	2461
38.04	2507
38.05	2538
38.06	2548
38.07	2524
38.08	2444
38.09	2446
38.1	2519
38.11	2563
38.12	2551
38.13	2534
38.14	2543
38.15	2541
38.16	2580
38.17	2613
38.18	2621
38.19	2622
38.2	2635
38.21	2647
38.22	2674
38.23	2694
38.24	2681
38.25	2694
38.26	2769
38.27	2825
38.28	2817
38.29	2790
38.3	2815
38.31	2884
38.32	2896
38.33	2919
38.34	2926
38.35	2992
38.36	3055
38.37	3106
38.38	3143
38.39	3171
38.4	3217
38.41	3275
38.42	3381
38.43	3460
38.44	3544
38.45	3751
38.46	3950
38.47	4096
38.48	4378
38.49	4759
38.5	5167
38.51	5576
38.52	6124
38.53	6905
38.54	7656
38.55	8511
38.56	9519
38.57	10606
38.58	11845
38.59	13226
38.6	14780
38.61	16626
38.62	18714
38.63	21044
38.64	23544
38.65	26108
38.66	28679
38.67	31149
38.68	33557
38.69	35607
38.7	37133
38.71	37787
38.72	37528
38.73	36513
38.74	34482
38.75	32084
38.76	29318
38.77	26679
38.78	24456
38.79	22635
38.8	21092
38.81	19813
38.82	18649
38.83	17147
38.84	15258
38.85	13257
38.86	11261
38.87	9269
38.88	7573
38.89	6199
38.9	5161
38.91	4438
38.92	3969
38.93	3712
38.94	3491
38.95	3346
38.96	3319
38.97	3190
38.98	3089
38.99	3054
39.0	3013
39.01	3017
39.02	2937
39.03	2872
39.04	2819
39.05	2787
39.06	2773
39.07	2748
39.08	2752
39.09	2724
39.1	2720
39.11	2721
39.12	2665
39.13	2631
39.14	2600
39.15	2598
39.16	2566
39.17	2478
39.18	2413
39.19	2468
39.2	2514
39.21	2474
39.22	2459
39.23	2487
39.24	2455
39.25	2401
39.26	2413
39.27	2413
39.28	2372
39.29	2380
39.3	2338
39.31	2351
39.32	2369
39.33	2373
39.34	2369
39.35	2343
39.36	2390
39.37	2346
39.38	2300
39.39	2324
39.4	2375
39.41	2387
39.42	2404
39.43	2340
39.44	2279
39.45	2244
39.46	2292
39.47	2320
39.48	2314
39.49	2300
39.5	2307
39.51	2308
39.52	2291
39.53	2300
39.54	2295
39.55	2297
39.56	2295
39.57	2278
39.58	2260
39.59	2306
39.6	2283
39.61	2287
39.62	2265
39.63	2249
39.64	2229
39.65	2287
39.66	2240
39.67	2234
39.68	2271
39.69	2284
39.7	2305
39.71	2332
39.72	2292
39.73	2255
39.74	2246
39.75	2254
39.76	2201
39.77	2216
39.78	2259
39.79	2272
39.8	2282
39.81	2250
39.82	2232
39.83	2242
39.84	2274
39.85	2206
39.86	2239
39.87	2305
39.88	2229
39.89	2161
39.9	2179
39.91	2240
39.92	2221
39.93	2198
39.94	2150
39.95	2192
39.96	2195
39.97	2224
39.98	2228
39.99	2192
40.0	2217
40.01	2226
40.02	2210
40.03	2221
40.04	2245
40.05	2192
40.06	2220
40.07	2196
40.08	2276
40.09	2252
40.1	2216
40.11	2214
40.12	2188
40.13	2164
40.14	2216
40.15	2211
40.16	2161
40.17	2172
40.18	2224
40.19	2224
40.2	2200
40.21	2161
40.22	2144
40.23	2201
40.24	2202
40.25	2172
40.26	2187
40.27	2204
40.28	2223
40.29	2247
40.3	2210
40.31	2152
40.32	2160
40.33	2220
40.34	2236
40.35	2220
40.36	2220
40.37	2224
40.38	2226
40.39	2217
40.4	2192
40.41	2174
40.42	2145
40.43	2142
40.44	2120
40.45	2217
40.46	2224
40.47	2228
40.48	2223
40.49	2218
40.5	2223
40.51	2199
40.52	2228
40.53	2209
40.54	2225
40.55	2252
40.56	2221
40.57	2181
40.58	2198
40.59	2232
40.6	2210
40.61	2183
40.62	2127
40.63	2153
40.64	2201
40.65	2187
40.66	2164
40.67	2128
40.68	2167
40.69	2179
40.7	2216
40.71	2182
40.72	2146
40.73	2176
40.74	2154
40.75	2151
40.76	2125
40.77	2157
40.78	2159
40.79	2174
40.8	2199
40.81	2143
40.82	2141
40.83	2204
40.84	2180
40.85	2137
40.86	2141
40.87	2181
40.88	2147
40.89	2131
40.9	2156
40.91	2161
40.92	2192
40.93	2183
40.94	2158
40.95	2199
40.96	2180
40.97	2152
40.98	2153
40.99	2156
41.0	2134
41.01	2139
41.02	2109
41.03	2166
41.04	2129
41.05	2091
41.06	2126
41.07	2154
41.08	2102
41.09	2147
41.1	2084
41.11	2141
41.12	2166
41.13	2146
41.14	2118
41.15	2058
41.16	2082
41.17	2155
41.18	2164
41.19	2173
41.2	2133
41.21	2108
41.22	2125
41.23	2125
41.24	2144
41.25	2123
41.26	2089
41.27	2095
41.28	2061
41.29	2143
41.3	2123
41.31	2162
41.32	2114
41.33	2031
41.34	2020
41.35	2064
41.36	2057
41.37	2034
41.38	2078
41.39	2128
41.4	2130
41.41	2106
41.42	2093
41.43	2123
41.44	2118
41.45	2134
41.46	2088
41.47	2074
41.48	2061
41.49	2043
41.5	2044
41.51	2015
41.52	2129
41.53	2148
41.54	2117
41.55	2098
41.56	2107
41.57	2125
41.58	2027
41.59	2068
41.6	2130
41.61	2174
41.62	2167
41.63	2126
41.64	2133
41.65	2195
41.66	2132
41.67	2102
41.68	2072
41.69	2055
41.7	2083
41.71	2079
41.72	2099
41.73	2094
41.74	2064
41.75	2054
41.76	2088
41.77	2112
41.78	2090
41.79	2144
41.8	2109
41.81	2075
41.82	2109
41.83	2121
41.84	2117
41.85	2121
41.86	2107
41.87	2121
41.88	2162
41.89	2146
41.9	2082
41.91	2096
41.92	2144
41.93	2099
41.94	2089
41.95	2105
41.96	2119
41.97	2071
41.98	2080
41.99	2133
42.0	2094
42.01	2055
42.02	2099
42.03	2126
42.04	2104
42.05	2098
42.06	2058
42.07	2100
42.08	2090
42.09	2114
42.1	2161
42.11	2107
42.12	2080
42.13	2051
42.14	2055
42.15	2056
42.16	2145
42.17	2110
42.18	2165
42.19	2136
42.2	2069
42.21	2071
42.22	2129
42.23	2115
42.24	2109
42.25	2093
42.26	2120
42.27	2145
42.28	2094
42.29	2088
42.3	2101
42.31	2105
42.32	2099
42.33	2094
42.34	2001
42.35	2120
42.36	2102
42.37	2036
42.38	2029
42.39	2036
42.4	2060
42.41	2110
42.42	2090
42.43	2062
42.44	2105
42.45	2097
42.46	2075
42.47	2087
42.48	2046
42.49	1982
42.5	2017
42.51	2016
42.52	2052
42.53	2004
42.54	2044
42.55	2012
42.56	2001
42.57	2048
42.58	2102
42.59	2071
42.6	2051
42.61	2086
42.62	2033
42.63	2089
42.64	2071
42.65	2058
42.66	2026
42.67	2007
42.68	2031
42.69	2050
42.7	2060
42.71	2018
42.72	1980
42.73	2028
42.74	2015
42.75	2075
42.76	2045
42.77	2088
42.78	2070
42.79	2037
42.8	2043
42.81	2028
42.82	2018
42.83	1991
42.84	2029
42.85	2054
42.86	2005
42.87	1998
42.88	1987
42.89	1996
42.9	2000
42.91	1997
42.92	2008
42.93	1980
42.94	2001
42.95	1977
42.96	2023
42.97	2068
42.98	2061
42.99	2038
43.0	2048
43.01	1996
43.02	1971
43.03	1956
43.04	1957
43.05	2018
43.06	2053
43.07	2019
43.08	2022
43.09	2000
43.1	1987
43.11	1994
43.12	2037
43.13	2000
43.14	1978
43.15	1988
43.16	2029
43.17	2010
43.18	2022
43.19	1974
43.2	1941
43.21	2015
43.22	2020
43.23	2028
43.24	1994
43.25	2022
43.26	2048
43.27	2083
43.28	2024
43.29	2056
43.3	2062
43.31	2065
43.32	2087
43.33	2076
43.34	2110
43.35	2106
43.36	2113
43.37	2131
43.38	2117
43.39	2107
43.4	2070
43.41	2125
43.42	2137
43.43	2209
43.44	2197
43.45	2208
43.46	2260
43.47	2227
43.48	2163
43.49	2198
43.5	2163
43.51	2123
43.52	2147
43.53	2169
43.54	2157
43.55	2123
43.56	2177
43.57	2189
43.58	2142
43.59	2169
43.6	2161
43.61	2133
43.62	2163
43.63	2184
43.64	2170
43.65	2116
43.66	2107
43.67	2131
43.68	2134
43.69	2151
43.7	2114
43.71	2121
43.72	2171
43.73	2179
43.74	2176
43.75	2179
43.76	2153
43.77	2115
43.78	2121
43.79	2139
43.8	2200
43.81	2241
43.82	2130
43.83	2122
43.84	2167
43.85	2149
43.86	2127
43.87	2126
43.88	2141
43.89	2151
43.9	2179
43.91	2111
43.92	2106
43.93	2157
43.94	2141
43.95	2142
43.96	2186
43.97	2135
43.98	2082
43.99	2107
44.0	2166
44.01	2168
44.02	2129
44.03	2117
44.04	2126
44.05	2167
44.06	2080
44.07	2052
44.08	2121
44.09	2148
44.1	2095
44.11	2081
44.12	2069
44.13	2081
44.14	2097
44.15	2115
44.16	2115
44.17	2139
44.18	2136
44.19	2124
44.2	2164
44.21	2116
44.22	2104
44.23	2157
44.24	2187
44.25	2124
44.26	2083
44.27	2119
44.28	2157
44.29	2148
44.3	2172
44.31	2188
44.32	2183
44.33	2148
44.34	2154
44.35	2111
44.36	2159
44.37	2169
44.38	2158
44.39	2122
44.4	2196
44.41	2183
44.42	2206
44.43	2256
44.44	2248
44.45	2305
44.46	2361
44.47	2354
44.48	2354
44.49	2331
44.5	2376
44.51	2371
44.52	2435
44.53	2509
44.54	2518
44.55	2541
44.56	2532
44.57	2587
44.58	2646
44.59	2697
44.6	2736
44.61	2832
44.62	2881
44.63	2869
44.64	2936
44.65	2998
44.66	3077
44.67	3179
44.68	3234
44.69	3327
44.7	3458
44.71	3545
44.72	3697
44.73	3873
44.74	4113
44.75	4438
44.76	4747
44.77	5101
44.78	5589
44.79	6214
44.8	6989
44.81	7745
44.82	8769
44.83	9930
44.84	11052
44.85	12485
44.86	13963
44.87	15783
44.88	17829
44.89	20113
44.9	22762
44.91	25634
44.92	28757
44.93	32441
44.94	36254
44.95	39976
44.96	43812
44.97	47562
44.98	50742
44.99	52888
45.0	54277
45.01	54554
45.02	53480
45.03	51393
45.04	48517
45.05	44726
45.06	40951
45.07	37757
45.08	34907
45.09	32700
45.1	31256
45.11	29901
45.12	28504
45.13	27157
45.14	25391
45.15	23034
45.16	20297
45.17	17553
45.18	14829
45.19	12243
45.2	10040
45.21	8242
45.22	6874
45.23	5813
45.24	5052
45.25	4533
45.26	4164
45.27	3912
45.28	3700
45.29	3567
45.3	3369
45.31	3246
45.32	3162
45.33	3090
45.34	2995
45.35	2915
45.36	2884
45.37	2832
45.38	2793
45.39	2732
45.4	2732
45.41	2699
45.42	2627
45.43	2500
45.44	2442
45.45	2423
45.46	2436
45.47	2382
45.48	2364
45.49	2332
45.5	2326
45.51	2285
45.52	2251
45.53	2220
45.54	2209
45.55	2168
45.56	2178
45.57	2190
45.58	2153
45.59	2099
45.6	2107
45.61	2118
45.62	2036
45.63	2016
45.64	2058
45.65	2075
45.66	2113
45.67	2085
45.68	2072
45.69	2041
45.7	2038
45.71	2040
45.72	2071
45.73	2057
45.74	2031
45.75	1986
45.76	2018
45.77	2029
45.78	2021
45.79	1997
45.8	2012
45.81	2017
45.82	2003
45.83	1978
45.84	1974
45.85	1997
45.86	1984
45.87	1973
45.88	1967
45.89	1974
45.9	1949
45.91	1945
45.92	1965
45.93	2007
45.94	2028
45.95	1970
45.96	1954
45.97	1959
45.98	1928
45.99	1916
46.0	1972
46.01	1949
46.02	1958
46.03	1979
46.04	1950
46.05	1924
46.06	1914
46.07	1935
46.08	1967
46.09	1970
46.1	1940
46.11	1919
46.12	1948
46.13	1942
46.14	1920
46.15	1959
46.16	1988
46.17	1942
46.18	1929
46.19	1906
46.2	1931
46.21	1947
46.22	1973
46.23	1985
46.24	1915
46.25	1888
46.26	1876
46.27	1907
46.28	1962
46.29	1947
46.3	1937
46.31	1953
46.32	1945
46.33	1924
46.34	1903
46.35	1915
46.36	1922
46.37	1925
46.38	1915
46.39	1907
46.4	1930
46.41	1935
46.42	1921
46.43	1890
46.44	1860
46.45	1845
46.46	1885
46.47	1919
46.48	1938
46.49	1942
46.5	1917
46.51	1890
46.52	1894
46.53	1931
46.54	1901
46.55	1878
46.56	1890
46.57	1915
46.58	1915
46.59	1885
46.6	1880
46.61	1885
46.62	1896
46.63	1897
46.64	1864
46.65	1838
46.66	1831
46.67	1865
46.68	1878
46.69	1858
46.7	1841
46.71	1844
46.72	1849
46.73	1863
46.74	1871
46.75	1888
46.76	1886
46.77	1885
46.78	1893
46.79	1876
46.8	1879
46.81	1880
46.82	1891
46.83	1873
46.84	1850
46.85	1844
46.86	1837
46.87	1837
46.88	1858
46.89	1852
46.9	1820
46.91	1823
46.92	1809
46.93	1850
46.94	1899
46.95	1884
46.96	1874
46.97	1917
46.98	1912
46.99	1903
47.0	1911
47.01	1899
47.02	1873
47.03	1861
47.04	1816
47.05	1801
47.06	1839
47.07	1867
47.08	1841
47.09	1859
47.1	1891
47.11	1859
47.12	1820
47.13	1846
47.14	1851
47.15	1825
47.16	1805
47.17	1811
47.18	1828
47.19	1802
47.2	1811
47.21	1853
47.22	1865
47.23	1869
47.24	1846
47.25	1835
47.26	1857
47.27	1848
47.28	1859
47.29	1852
47.3	1808
47.31	1803
47.32	1833
47.33	1849
47.34	1843
47.35	1828
47.36	1833
47.37	1836
47.38	1851
47.39	1830
47.4	1824
47.41	1874
47.42	1856
47.43	1810
47.44	1822
47.45	1811
47.46	1796
47.47	1842
47.48	1874
47.49	1876
47.5	1888
47.51	1915
47.52	1876
47.53	1842
47.54	1862
47.55	1859
47.56	1841
47.57	1834
47.58	1844
47.59	1800
47.6	1778
47.61	1807
47.62	1819
47.63	1833
47.64	1835
47.65	1819
47.66	1841
47.67	1857
47.68	1830
47.69	1805
47.7	1789
47.71	1824
47.72	1853
47.73	1849
47.74	1846
47.75	1835
47.76	1830
47.77	1816
47.78	1794
47.79	1788
47.8	1795
47.81	1771
47.82	1774
47.83	1813
47.84	1815
47.85	1802
47.86	1832
47.87	1817
47.88	1798
47.89	1783
47.9	1757
47.91	1784
47.92	1798
47.93	1771
47.94	1765
47.95	1823
47.96	1836
47.97	1813
47.98	1805
47.99	1808
48.0	1777
48.01	1773
48.02	1804
48.03	1791
48.04	1799
48.05	1795
48.06	1759
48.07	1798
48.08	1837
48.09	1837
48.1	1831
48.11	1785
48.12	1758
48.13	1790
48.14	1826
48.15	1831
48.16	1814
48.17	1787
48.18	1749
48.19	1759
48.2	1759
48.21	1737
48.22	1777
48.23	1828
48.24	1803
48.25	1773
48.26	1787
48.27	1778
48.28	1776
48.29	1805
48.3	1818
48.31	1778
48.32	1759
48.33	1788
48.34	1822
48.35	1809
48.36	1743
48.37	1738
48.38	1769
48.39	1736
48.4	1728
48.41	1778
48.42	1785
48.43	1776
48.44	1756
48.45	1712
48.46	1730
48.47	1761
48.48	1740
48.49	1743
48.5	1746
48.51	1714
48.52	1714
48.53	1761
48.54	1792
48.55	1774
48.56	1729
48.57	1719
48.58	1734
48.59	1723
48.6	1732
48.61	1752
48.62	1736
48.63	1714
48.64	1733
48.65	1775
48.66	1780
48.67	1767
48.68	1783
48.69	1781
48.7	1787
48.71	1784
48.72	1735
48.73	1709
48.74	1724
48.75	1747
48.76	1744
48.77	1719
48.78	1706
48.79	1720
48.8	1740
48.81	1737
48.82	1751
48.83	1751
48.84	1729
48.85	1693
48.86	1653
48.87	1660
48.88	1686
48.89	1712
48.9	1717
48.91	1703
48.92	1721
48.93	1732
48.94	1760
48.95	1744
48.96	1712
48.97	1756
48.98	1755
48.99	1718
49.0	1720
49.01	1743
49.02	1756
49.03	1755
49.04	1720
49.05	1670
49.06	1670
49.07	1694
49.08	1742
49.09	1713
49.1	1721
49.11	1752
49.12	1743
49.13	1741
49.14	1758
49.15	1758
49.16	1732
49.17	1725
49.18	1733
49.19	1752
49.2	1778
49.21	1758
49.22	1722
49.23	1735
49.24	1759
49.25	1752
49.26	1769
49.27	1783
49.28	1758
49.29	1735
49.3	1752
49.31	1749
49.32	1737
49.33	1726
49.34	1743
49.35	1744
49.36	1685
49.37	1700
49.38	1726
49.39	1716
49.4	1687
49.41	1695
49.42	1702
49.43	1683
49.44	1694
49.45	1699
49.46	1693
49.47	1681
49.48	1635
49.49	1599
49.5	1648
49.51	1718
49.52	1714
49.53	1697
49.54	1672
49.55	1668
49.56	1709
49.57	1716
49.58	1686
49.59	1661
49.6	1665
49.61	1682
49.62	1666
49.63	1623
49.64	1620
49.65	1650
49.66	1642
49.67	1614
49.68	1624
49.69	1656
49.7	1673
49.71	1684
49.72	1648
49.73	1646
49.74	1658
49.75	1619
49.76	1614
49.77	1623
49.78	1649
49.79	1627
49.8	1615
49.81	1646
49.82	1634
49.83	1639
49.84	1661
49.85	1645
49.86	1621
49.87	1627
49.88	1652
49.89	1629
49.9	1593
49.91	1613
49.92	1647
49.93	1653
49.94	1642
49.95	1639
49.96	1632
49.97	1623
49.98	1635
49.99	1639
50.0	1622
50.01	1641
50.02	1678
50.03	1670
50.04	1639
50.05	1627
50.06	1602
50.07	1571
50.08	1579
50.09	1597
50.1	1617
50.11	1617
50.12	1598
50.13	1592
50.14	1596
50.15	1608
50.16	1618
50.17	1601
50.18	1616
50.19	1637
50.2	1617
50.21	1634
50.22	1629
50.23	1601
50.24	1619
50.25	1619
50.26	1608
50.27	1601
50.28	1596
50.29	1595
50.3	1573
50.31	1607
50.32	1636
50.33	1596
50.34	1576
50.35	1565
50.36	1575
50.37	1585
50.38	1589
50.39	1616
50.4	1595
50.41	1587
50.42	1637
50.43	1649
50.44	1580
50.45	1548
50.46	1573
50.47	1593
50.48	1611
50.49	1597
50.5	1565
50.51	1525
50.52	1528
50.53	1557
50.54	1578
50.55	1595
50.56	1580
50.57	1578
50.58	1596
50.59	1583
50.6	1569
50.61	1570
50.62	1570
50.63	1561
50.64	1566
50.65	1612
50.66	1596
50.67	1538
50.68	1521
50.69	1547
50.7	1566
50.71	1557
50.72	1580
50.73	1591
50.74	1572
50.75	1557
50.76	1545
50.77	1567
50.78	1590
50.79	1541
50.8	1512
50.81	1542
50.82	1558
50.83	1568
50.84	1581
50.85	1575
50.86	1547
50.87	1548
50.88	1554
50.89	1529
50.9	1534
50.91	1546
50.92	1511
50.93	1502
50.94	1562
50.95	1575
50.96	1525
50.97	1499
50.98	1522
50.99	1529
51.0	1522
51.01	1526
51.02	1558
51.03	1593
51.04	1556
51.05	1531
51.06	1549
51.07	1584
51.08	1585
51.09	1561
51.1	1549
51.11	1527
51.12	1525
51.13	1534
51.14	1568
51.15	1584
51.16	1553
51.17	1551
51.18	1538
51.19	1507
51.2	1524
51.21	1525
51.22	1503
51.23	1510
51.24	1521
51.25	1529
51.26	1517
51.27	1519
51.28	1525
51.29	1499
51.3	1520
51.31	1542
51.32	1535
51.33	1553
51.34	1547
51.35	1515
51.36	1515
51.37	1547
51.38	1538
51.39	1493
51.4	1529
51.41	1573
51.42	1547
51.43	1532
51.44	1517
51.45	1516
51.46	1515
51.47	1508
51.48	1517
51.49	1532
51.5	1544
51.51	1525
51.52	1548
51.53	1570
51.54	1529
51.55	1508
51.56	1532
51.57	1536
51.58	1542
51.59	1577
51.6	1582
51.61	1533
51.62	1501
51.63	1514
51.64	1500
51.65	1480
51.66	1511
51.67	1517
51.68	1496
51.69	1506
51.7	1531
51.71	1526
51.72	1497
51.73	1493
51.74	1517
51.75	1525
51.76	1517
51.77	1486
51.78	1472
51.79	1477
51.8	1467
51.81	1489
51.82	1507
51.83	1493
51.84	1482
51.85	1502
51.86	1553
51.87	1558
51.88	1531
51.89	1498
51.9	1479
51.91	1485
51.92	1503
51.93	1521
51.94	1516
51.95	1506
51.96	1499
51.97	1493
51.98	1501
51.99	1497
52.0	1480
52.01	1503
52.02	1539
52.03	1520
52.04	1489
52.05	1505
52.06	1528
52.07	1534
52.08	1539
52.09	1496
52.1	1466
52.11	1485
52.12	1476
52.13	1483
52.14	1498
52.15	1476
52.16	1466
52.17	1491
52.18	1523
52.19	1512
52.2	1464
52.21	1456
52.22	1474
52.23	1480
52.24	1472
52.25	1474
52.26	1466
52.27	1464
52.28	1475
52.29	1480
52.3	1494
52.31	1515
52.32	1514
52.33	1478
52.34	1460
52.35	1481
52.36	1479
52.37	1482
52.38	1466
52.39	1478
52.4	1490
52.41	1471
52.42	1478
52.43	1475
52.44	1463
52.45	1472
52.46	1493
52.47	1480
52.48	1454
52.49	1442
52.5	1465
52.51	1476
52.52	1460
52.53	1458
52.54	1452
52.55	1459
52.56	1498
52.57	1493
52.58	1459
52.59	1457
52.6	1506
52.61	1494
52.62	1453
52.63	1470
52.64	1503
52.65	1510
52.66	1517
52.67	1523
52.68	1507
52.69	1466
52.7	1440
52.71	1439
52.72	1408
52.73	1417
52.74	1429
52.75	1435
52.76	1479
52.77	1467
52.78	1438
52.79	1427
52.8	1434
52.81	1450
52.82	1464
52.83	1485
52.84	1499
52.85	1484
52.86	1472
52.87	1453
52.88	1448
52.89	1452
52.9	1437
52.91	1434
52.92	1423
52.93	1433
52.94	1448
52.95	1450
52.96	1468
52.97	1491
52.98	1500
52.99	1466
53.0	1441
53.01	1443
53.02	1447
53.03	1457
53.04	1457
53.05	1436
53.06	1428
53.07	1486
53.08	1544
53.09	1513
53.1	1454
53.11	1435
53.12	1407
53.13	1399
53.14	1450
53.15	1476
53.16	1452
53.17	1416
53.18	1431
53.19	1441
53.2	1419
53.21	1413
53.22	1448
53.23	1470
53.24	1437
53.25	1405
53.26	1407
53.27	1446
53.28	1467
53.29	1429
53.3	1402
53.31	1411
53.32	1433
53.33	1445
53.34	1439
53.35	1409
53.36	1403
53.37	1415
53.38	1398
53.39	1400
53.4	1394
53.41	1406
53.42	1420
53.43	1426
53.44	1429
53.45	1425
53.46	1447
53.47	1463
53.48	1474
53.49	1448
53.5	1409
53.51	1411
53.52	1426
53.53	1424
53.54	1440
53.55	1438
53.56	1429
53.57	1448
53.58	1430
53.59	1430
53.6	1427
53.61	1395
53.62	1413
53.63	1442
53.64	1446
53.65	1425
53.66	1394
53.67	1425
53.68	1459
53.69	1468
53.7	1442
53.71	1427
53.72	1423
53.73	1407
53.74	1427
53.75	1425
53.76	1399
53.77	1378
53.78	1373
53.79	1412
53.8	1428
53.81	1436
53.82	1451
53.83	1424
53.84	1410
53.85	1430
53.86	1428
53.87	1422
53.88	1423
53.89	1396
53.9	1382
53.91	1387
53.92	1428
53.93	1430
53.94	1403
53.95	1412
53.96	1408
53.97	1409
53.98	1403
53.99	1388
54.0	1396
54.01	1403
54.02	1444
54.03	1462
54.04	1435
54.05	1405
54.06	1384
54.07	1385
54.08	1416
54.09	1417
54.1	1391
54.11	1408
54.12	1443
54.13	1429
54.14	1399
54.15	1402
54.16	1404
54.17	1414
54.18	1382
54.19	1386
54.2	1409
54.21	1413
54.22	1417
54.23	1438
54.24	1454
54.25	1431
54.26	1413
54.27	1388
54.28	1394
54.29	1421
54.3	1405
54.31	1424
54.32	1445
54.33	1418
54.34	1377
54.35	1377
54.36	1410
54.37	1423
54.38	1429
54.39	1389
54.4	1349
54.41	1349
54.42	1387
54.43	1418
54.44	1455
54.45	1456
54.46	1405
54.47	1390
54.48	1405
54.49	1402
54.5	1396
54.51	1400
54.52	1436
54.53	1434
54.54	1391
54.55	1386
54.56	1404
54.57	1416
54.58	1413
54.59	1401
54.6	1413
54.61	1425
54.62	1393
54.63	1370
54.64	1374
54.65	1391
54.66	1412
54.67	1388
54.68	1386
54.69	1394
54.7	1424
54.71	1438
54.72	1386
54.73	1379
54.74	1424
54.75	1415
54.76	1419
54.77	1455
54.78	1456
54.79	1444
54.8	1449
54.81	1417
54.82	1366
54.83	1362
54.84	1379
54.85	1400
54.86	1406
54.87	1424
54.88	1396
54.89	1383
54.9	1406
54.91	1419
54.92	1393
54.93	1358
54.94	1368
54.95	1416
54.96	1420
54.97	1404
54.98	1406
54.99	1382
55.0	1390
55.01	1403
55.02	1389
55.03	1387
55.04	1401
55.05	1401
55.06	1394
55.07	1378
55.08	1377
55.09	1385
55.1	1378
55.11	1398
55.12	1410
55.13	1374
55.14	1345
55.15	1352
55.16	1345
55.17	1358
55.18	1407
55.19	1407
55.2	1380
55.21	1395
55.22	1401
55.23	1354
55.24	1354
55.25	1404
55.26	1398
55.27	1396
55.28	1421
55.29	1406
55.3	1382
55.31	1362
55.32	1363
55.33	1391
55.34	1365
55.35	1355
55.36	1364
55.37	1360
55.38	1357
55.39	1344
55.4	1334
55.41	1341
55.42	1386
55.43	1422
55.44	1424
55.45	1390
55.46	1358
55.47	1351
55.48	1358
55.49	1384
55.5	1398
55.51	1353
55.52	1366
55.53	1396
55.54	1406
55.55	1348
55.56	1344
55.57	1346
55.58	1359
55.59	1383
55.6	1395
55.61	1391
55.62	1394
55.63	1368
55.64	1350
55.65	1356
55.66	1360
55.67	1370
55.68	1342
55.69	1380
55.7	1371
55.71	1353
55.72	1363
55.73	1330
55.74	1369
55.75	1393
55.76	1371
55.77	1356
55.78	1346
55.79	1361
55.8	1376
55.81	1380
55.82	1367
55.83	1334
55.84	1315
55.85	1334
55.86	1371
55.87	1379
55.88	1395
55.89	1407
55.9	1398
55.91	1372
55.92	1356
55.93	1371
55.94	1374
55.95	1344
55.96	1340
55.97	1340
55.98	1353
55.99	1337
56.0	1352
56.01	1361
56.02	1336
56.03	1325
56.04	1318
56.05	1317
56.06	1318
56.07	1337
56.08	1334
56.09	1342
56.1	1349
56.11	1400
56.12	1374
56.13	1369
56.14	1379
56.15	1348
56.16	1329
56.17	1340
56.18	1378
56.19	1395
56.2	1354
56.21	1311
56.22	1321
56.23	1355
56.24	1368
56.25	1347
56.26	1308
56.27	1287
56.28	1296
56.29	1342
56.3	1352
56.31	1311
56.32	1321
56.33	1336
56.34	1327
56.35	1345
56.36	1331
56.37	1338
56.38	1363
56.39	1346
56.4	1282
56.41	1261
56.42	1296
56.43	1343
56.44	1340
56.45	1316
56.46	1307
56.47	1336
56.48	1341
56.49	1318
56.5	1341
56.51	1327
56.52	1299
56.53	1306
56.54	1304
56.55	1316
56.56	1323
56.57	1327
56.58	1338
56.59	1370
56.6	1400
56.61	1402
56.62	1375
56.63	1320
56.64	1309
56.65	1337
56.66	1322
56.67	1288
56.68	1302
56.69	1325
56.7	1353
56.71	1344
56.72	1319
56.73	1340
56.74	1326
56.75	1305
56.76	1304
56.77	1308
56.78	1307
56.79	1325
56.8	1328
56.81	1358
56.82	1316
56.83	1272
56.84	1280
56.85	1312
56.86	1311
56.87	1335
56.88	1325
56.89	1300
56.9	1307
56.91	1314
56.92	1332
56.93	1303
56.94	1327
56.95	1358
56.96	1317
56.97	1314
56.98	1347
56.99	1337
57.0	1319
57.01	1327
57.02	1311
57.03	1321
57.04	1343
57.05	1360
57.06	1342
57.07	1306
57.08	1286
57.09	1295
57.1	1289
57.11	1279
57.12	1292
57.13	1324
57.14	1325
57.15	1317
57.16	1312
57.17	1312
57.18	1314
57.19	1293
57.2	1296
57.21	1303
57.22	1317
57.23	1284
57.24	1290
57.25	1327
57.26	1304
57.27	1274
57.28	1287
57.29	1285
57.3	1284
57.31	1305
57.32	1333
57.33	1338
57.34	1310
57.35	1275
57.36	1305
57.37	1303
57.38	1310
57.39	1328
57.4	1325
57.41	1309
57.42	1306
57.43	1334
57.44	1304
57.45	1319
57.46	1287
57.47	1293
57.48	1341
57.49	1349
57.5	1329
57.51	1333
57.52	1331
57.53	1312
57.54	1330
57.55	1344
57.56	1327
57.57	1323
57.58	1314
57.59	1319
57.6	1335
57.61	1331
57.62	1332
57.63	1347
57.64	1354
57.65	1328
57.66	1310
57.67	1303
57.68	1294
57.69	1308
57.7	1289
57.71	1254
57.72	1270
57.73	1276
57.74	1275
57.75	1296
57.76	1302
57.77	1281
57.78	1294
57.79	1293
57.8	1280
57.81	1292
57.82	1295
57.83	1280
57.84	1316
57.85	1319
57.86	1290
57.87	1270
57.88	1242
57.89	1272
57.9	1269
57.91	1246
57.92	1249
57.93	1229
57.94	1252
57.95	1296
57.96	1301
57.97	1320
57.98	1338
57.99	1331
58.0	1301
58.01	1255
58.02	1237
58.03	1279
58.04	1304
58.05	1292
58.06	1270
58.07	1325
58.08	1316
58.09	1286
58.1	1292
58.11	1274
58.12	1278
58.13	1276
58.14	1284
58.15	1279
58.16	1250
58.17	1283
58.18	1289
58.19	1272
58.2	1259
58.21	1252
58.22	1234
58.23	1245
58.24	1259
58.25	1242
58.26	1247
58.27	1265
58.28	1303
58.29	1262
58.3	1283
58.31	1295
58.32	1245
58.33	1219
58.34	1246
58.35	1285
58.36	1287
58.37	1270
58.38	1243
58.39	1231
58.4	1250
58.41	1272
58.42	1276
58.43	1282
58.44	1264
58.45	1271
58.46	1292
58.47	1259
58.48	1227
58.49	1238
58.5	1274
58.51	1291
58.52	1271
58.53	1263
58.54	1287
58.55	1283
58.56	1255
58.57	1237
58.58	1268
58.59	1286
58.6	1265
58.61	1223
58.62	1259
58.63	1307
58.64	1282
58.65	1304
58.66	1299
58.67	1263
58.68	1243
58.69	1207
58.7	1229
58.71	1254
58.72	1251
58.73	1259
58.74	1272
58.75	1279
58.76	1238
58.77	1221
58.78	1210
58.79	1200
58.8	1248
58.81	1271
58.82	1249
58.83	1235
58.84	1228
58.85	1192
58.86	1209
58.87	1223
58.88	1253
58.89	1292
58.9	1259
58.91	1275
58.92	1293
58.93	1263
58.94	1274
58.95	1259
58.96	1264
58.97	1259
58.98	1275
58.99	1304
59.0	1272
59.01	1271
59.02	1274
59.03	1271
59.04	1283
59.05	1284
59.06	1283
59.07	1255
59.08	1265
59.09	1250
59.1	1250
59.11	1242
59.12	1267
59.13	1250
59.14	1262
59.15	1260
59.16	1255
59.17	1253
59.18	1262
59.19	1276
59.2	1226
59.21	1209
59.22	1232
59.23	1227
59.24	1219
59.25	1241
59.26	1238
59.27	1256
59.28	1235
59.29	1219
59.3	1272
59.31	1256
59.32	1267
59.33	1226
59.34	1222
59.35	1245
59.36	1235
59.37	1226
59.38	1243
59.39	1257
59.4	1266
59.41	1286
59.42	1254
59.43	1218
59.44	1236
59.45	1255
59.46	1256
59.47	1292
59.48	1251
59.49	1239
59.5	1260
59.51	1265
59.52	1241
59.53	1258
59.54	1266
59.55	1260
59.56	1228
59.57	1234
59.58	1242
59.59	1225
59.6	1259
59.61	1289
59.62	1273
59.63	1246
59.64	1209
59.65	1213
59.66	1223
59.67	1242
59.68	1248
59.69	1222
59.7	1224
59.71	1250
59.72	1277
59.73	1256
59.74	1250
59.75	1216
59.76	1259
59.77	1260
59.78	1235
59.79	1204
59.8	1195
59.81	1230
59.82	1231
59.83	1215
59.84	1216
59.85	1212
59.86	1188
59.87	1191
59.88	1208
59.89	1240
59.9	1253
59.91	1249
59.92	1245
59.93	1221
59.94	1228
59.95	1232
59.96	1230
59.97	1199
59.98	1229
59.99	1271
60.0	1247
60.01	1238
60.02	1233
60.03	1222
60.04	1253
60.05	1263
60.06	1238
60.07	1225
60.08	1230
60.09	1244
60.1	1237
60.11	1210
60.12	1195
60.13	1182
60.14	1187
60.15	1238
60.16	1245
60.17	1249
60.18	1256
60.19	1250
60.2	1266
60.21	1252
60.22	1248
60.23	1220
60.24	1209
60.25	1227
60.26	1234
60.27	1211
60.28	1208
60.29	1225
60.3	1223
60.31	1208
60.32	1220
60.33	1193
60.34	1206
60.35	1239
60.36	1226
60.37	1251
60.38	1246
60.39	1228
60.4	1242
60.41	1249
60.42	1214
60.43	1213
60.44	1206
60.45	1168
60.46	1194
60.47	1221
60.48	1224
60.49	1263
60.5	1274
60.51	1247
60.52	1212
60.53	1216
60.54	1210
60.55	1178
60.56	1203
60.57	1200
60.58	1199
60.59	1208
60.6	1218
60.61	1204
60.62	1201
60.63	1220
60.64	1208
60.65	1194
60.66	1217
60.67	1200
60.68	1187
60.69	1224
60.7	1219
60.71	1192
60.72	1186
60.73	1207
60.74	1207
60.75	1225
60.76	1225
60.77	1196
60.78	1204
60.79	1228
60.8	1249
60.81	1203
60.82	1183
60.83	1169
60.84	1187
60.85	1223
60.86	1236
60.87	1211
60.88	1215
60.89	1254
60.9	1255
60.91	1229
60.92	1217
60.93	1201
60.94	1194
60.95	1202
60.96	1206
60.97	1224
60.98	1242
60.99	1209
61.0	1248
61.01	1213
61.02	1188
61.03	1181
61.04	1217
61.05	1217
61.06	1192
61.07	1190
61.08	1214
61.09	1219
61.1	1233
61.11	1228
61.12	1214
61.13	1216
61.14	1241
61.15	1252
61.16	1233
61.17	1205
61.18	1203
61.19	1215
61.2	1255
61.21	1203
61.22	1213
61.23	1212
61.24	1224
61.25	1228
61.26	1216
61.27	1225
61.28	1197
61.29	1182
61.3	1169
61.31	1180
61.32	1174
61.33	1174
61.34	1218
61.35	1240
61.36	1217
61.37	1226
61.38	1203
61.39	1181
61.4	1227
61.41	1239
61.42	1178
61.43	1193
61.44	1189
61.45	1207
61.46	1223
61.47	1198
61.48	1210
61.49	1202
61.5	1210
61.51	1240
61.52	1210
61.53	1194
61.54	1193
61.55	1207
61.56	1211
61.57	1206
61.58	1200
61.59	1177
61.6	1187
61.61	1219
61.62	1221
61.63	1206
61.64	1210
61.65	1216
61.66	1220
61.67	1178
61.68	1182
61.69	1192
61.7	1164
61.71	1166
61.72	1195
61.73	1184
61.74	1182
61.75	1164
61.76	1195
61.77	1202
61.78	1208
61.79	1230
61.8	1228
61.81	1200
61.82	1243
61.83	1231
61.84	1162
61.85	1167
61.86	1134
61.87	1174
61.88	1202
61.89	1167
61.9	1184
61.91	1208
61.92	1183
61.93	1202
61.94	1225
61.95	1213
61.96	1207
61.97	1211
61.98	1241
61.99	1215
62.0	1161
62.01	1199
62.02	1250
62.03	1207
62.04	1191
62.05	1168
62.06	1186
62.07	1190
62.08	1203
62.09	1173
62.1	1186
62.11	1178
62.12	1187
62.13	1193
62.14	1213
62.15	1192
62.16	1182
62.17	1204
62.18	1211
62.19	1217
62.2	1182
62.21	1173
62.22	1180
62.23	1202
62.24	1211
62.25	1208
62.26	1195
62.27	1189
62.28	1216
62.29	1215
62.3	1206
62.31	1179
62.32	1148
62.33	1186
62.34	1219
62.35	1199
62.36	1202
62.37	1195
62.38	1179
62.39	1183
62.4	1195
62.41	1191
62.42	1183
62.43	1202
62.44	1206
62.45	1194
62.46	1164
62.47	1191
62.48	1167
62.49	1190
62.5	1216
62.51	1206
62.52	1156
62.53	1174
62.54	1167
62.55	1139
62.56	1184
62.57	1191
62.58	1220
62.59	1206
62.6	1176
62.61	1148
62.62	1179
62.63	1150
62.64	1172
62.65	1192
62.66	1197
62.67	1203
62.68	1194
62.69	1178
62.7	1198
62.71	1173
62.72	1168
62.73	1177
62.74	1193
62.75	1203
62.76	1167
62.77	1185
62.78	1205
62.79	1213
62.8	1217
62.81	1177
62.82	1155
62.83	1176
62.84	1184
62.85	1171
62.86	1186
62.87	1190
62.88	1207
62.89	1192
62.9	1193
62.91	1206
62.92	1190
62.93	1218
62.94	1215
62.95	1233
62.96	1236
62.97	1254
62.98	1255
62.99	1219
63.0	1237
63.01	1272
63.02	1264
63.03	1240
63.04	1259
63.05	1251
63.06	1247
63.07	1249
63.08	1272
63.09	1272
63.1	1242
63.11	1255
63.12	1221
63.13	1254
63.14	1277
63.15	1220
63.16	1241
63.17	1236
63.18	1239
63.19	1252
63.2	1217
63.21	1258
63.22	1236
63.23	1220
63.24	1201
63.25	1189
63.26	1175
63.27	1205
63.28	1209
63.29	1210
63.3	1233
63.31	1225
63.32	1213
63.33	1206
63.34	1220
63.35	1248
63.36	1223
63.37	1224
63.38	1291
63.39	1271
63.4	1195
63.41	1190
63.42	1234
63.43	1245
63.44	1227
63.45	1187
63.46	1213
63.47	1211
63.48	1258
63.49	1215
63.5	1187
63.51	1240
63.52	1264
63.53	1269
63.54	1234
63.55	1250
63.56	1250
63.57	1241
63.58	1196
63.59	1182
63.6	1238
63.61	1210
63.62	1223
63.63	1220
63.64	1214
63.65	1196
63.66	1223
63.67	1237
63.68	1238
63.69	1240
63.7	1258
63.71	1218
63.72	1226
63.73	1263
63.74	1243
63.75	1268
63.76	1232
63.77	1194
63.78	1164
63.79	1162
63.8	1205
63.81	1240
63.82	1219
63.83	1228
63.84	1232
63.85	1235
63.86	1232
63.87	1186
63.88	1180
63.89	1261
63.9	1260
63.91	1218
63.92	1240
63.93	1208
63.94	1219
63.95	1250
63.96	1254
63.97	1234
63.98	1218
63.99	1259
64.0	1263
64.01	1242
64.02	1227
64.03	1258
64.04	1239
64.05	1226
64.06	1234
64.07	1220
64.08	1182
64.09	1210
64.1	1173
64.11	1193
64.12	1227
64.13	1236
64.14	1214
64.15	1213
64.16	1222
64.17	1218
64.18	1209
64.19	1261
64.2	1252
64.21	1244
64.22	1196
64.23	1216
64.24	1248
64.25	1204
64.26	1233
64.27	1236
64.28	1195
64.29	1202
64.3	1224
64.31	1186
64.32	1160
64.33	1213
64.34	1224
64.35	1188
64.36	1215
64.37	1234
64.38	1196
64.39	1196
64.4	1173
64.41	1203
64.42	1194
64.43	1223
64.44	1262
64.45	1257
64.46	1254
64.47	1264
64.48	1273
64.49	1219
64.5	1195
64.51	1221
64.52	1235
64.53	1237
64.54	1277
64.55	1263
64.56	1256
64.57	1220
64.58	1226
64.59	1245
64.6	1197
64.61	1232
64.62	1240
64.63	1283
64.64	1255
64.65	1236
64.66	1228
64.67	1255
64.68	1247
64.69	1249
64.7	1264
64.71	1217
64.72	1255
64.73	1292
64.74	1301
64.75	1282
64.76	1249
64.77	1221
64.78	1272
64.79	1286
64.8	1236
64.81	1261
64.82	1291
64.83	1295
64.84	1264
64.85	1244
64.86	1301
64.87	1288
64.88	1225
64.89	1201
64.9	1273
64.91	1338
64.92	1372
64.93	1352
64.94	1322
64.95	1311
64.96	1333
64.97	1384
64.98	1381
64.99	1398
65.0	1392
65.01	1407
65.02	1435
65.03	1448
65.04	1475
65.05	1515
65.06	1557
65.07	1623
65.08	1602
65.09	1665
65.1	1685
65.11	1688
65.12	1643
65.13	1706
65.14	1788
65.15	1786
65.16	1825
65.17	1828
65.18	1798
65.19	1841
65.2	1895
65.21	1957
65.22	2005
65.23	2108
65.24	2096
65.25	2186
65.26	2275
65.27	2442
65.28	2576
65.29	2772
65.3	3091
65.31	3361
65.32	3811
65.33	4307
65.34	4908
65.35	5567
65.36	6344
65.37	7226
65.38	8186
65.39	9160
65.4	10306
65.41	11515
65.42	12666
65.43	14043
65.44	15211
65.45	16724
65.46	18117
65.47	19378
65.48	20709
65.49	22179
65.5	22848
65.51	23433
65.52	23663
65.53	23162
65.54	22052
65.55	20554
65.56	18757
65.57	16769
65.58	15101
65.59	13571
65.6	12385
65.61	11692
65.62	11292
65.63	11166
65.64	11194
65.65	11557
65.66	11834
65.67	12201
65.68	12439
65.69	12547
65.7	12301
65.71	12064
65.72	11430
65.73	10404
65.74	9261
65.75	8112
65.76	7009
65.77	5904
65.78	4957
65.79	4193
65.8	3600
65.81	3196
65.82	2878
65.83	2495
65.84	2340
65.85	2227
65.86	2061
65.87	1905
65.88	1831
65.89	1810
65.9	1861
65.91	1814
65.92	1779
65.93	1719
65.94	1636
65.95	1586
65.96	1631
65.97	1567
65.98	1552
65.99	1531
66.0	1513
66.01	1451
66.02	1428
66.03	1419
66.04	1482
66.05	1442
66.06	1390
66.07	1396
66.08	1297
66.09	1300
66.1	1372
66.11	1353
66.12	1368
66.13	1328
66.14	1268
66.15	1255
66.16	1308
66.17	1292
66.18	1240
66.19	1270
66.2	1299
66.21	1213
66.22	1228
66.23	1247
66.24	1276
66.25	1239
66.26	1250
66.27	1237
66.28	1209
66.29	1246
66.3	1236
66.31	1235
66.32	1233
66.33	1231
66.34	1218
66.35	1253
66.36	1264
66.37	1224
66.38	1218
66.39	1220
66.4	1215
66.41	1191
66.42	1188
66.43	1270
66.44	1266
66.45	1223
66.46	1204
66.47	1215
66.48	1203
66.49	1190
66.5	1203
66.51	1166
66.52	1213
66.53	1230
66.54	1229
66.55	1201
66.56	1208
66.57	1185
66.58	1175
66.59	1167
66.6	1174
66.61	1179
66.62	1178
66.63	1157
66.64	1126
66.65	1146
66.66	1177
66.67	1193
66.68	1191
66.69	1141
66.7	1115
66.71	1166
66.72	1156
66.73	1163
66.74	1206
66.75	1228
66.76	1215
66.77	1173
66.78	1148
66.79	1157
66.8	1185
66.81	1145
66.82	1176
66.83	1218
66.84	1191
66.85	1180
66.86	1173
66.87	1143
66.88	1163
66.89	1167
66.9	1126
66.91	1157
66.92	1168
66.93	1162
66.94	1193
66.95	1174
66.96	1139
66.97	1158
66.98	1172
66.99	1206
67.0	1155
67.01	1167
67.02	1171
67.03	1146
67.04	1144
67.05	1146
67.06	1128
67.07	1140
67.08	1172
67.09	1139
67.1	1151
67.11	1116
67.12	1105
67.13	1152
67.14	1141
67.15	1116
67.16	1154
67.17	1121
67.18	1140
67.19	1161
67.2	1145
67.21	1092
67.22	1069
67.23	1140
67.24	1157
67.25	1110
67.26	1115
67.27	1118
67.28	1130
67.29	1136
67.3	1120
67.31	1139
67.32	1110
67.33	1100
67.34	1121
67.35	1137
67.36	1152
67.37	1136
67.38	1115
67.39	1120
67.4	1138
67.41	1122
67.42	1079
67.43	1107
67.44	1109
67.45	1100
67.46	1092
67.47	1155
67.48	1166
67.49	1116
67.5	1130
67.51	1123
67.52	1147
67.53	1151
67.54	1101
67.55	1122
67.56	1161
67.57	1164
67.58	1133
67.59	1105
67.6	1099
67.61	1133
67.62	1116
67.63	1076
67.64	1068
67.65	1058
67.66	1128
67.67	1125
67.68	1124
67.69	1128
67.7	1114
67.71	1104
67.72	1107
67.73	1136
67.74	1094
67.75	1120
67.76	1126
67.77	1130
67.78	1135
67.79	1112
67.8	1077
67.81	1130
67.82	1138
67.83	1125
67.84	1091
67.85	1085
67.86	1064
67.87	1076
67.88	1079
67.89	1108
67.9	1118
67.91	1086
67.92	1093
67.93	1102
67.94	1094
67.95	1061
67.96	1093
67.97	1152
67.98	1080
67.99	1080
68.0	1070
68.01	1101
68.02	1122
68.03	1134
68.04	1117
68.05	1127
68.06	1086
68.07	1065
68.08	1080
68.09	1099
68.1	1083
68.11	1095
68.12	1096
68.13	1060
68.14	1092
68.15	1039
68.16	1093
68.17	1066
68.18	1097
68.19	1061
68.2	1095
68.21	1133
68.22	1098
68.23	1050
68.24	1064
68.25	1068
68.26	1088
68.27	1106
68.28	1131
68.29	1110
68.3	1098
68.31	1100
68.32	1102
68.33	1117
68.34	1087
68.35	1099
68.36	1099
68.37	1098
68.38	1088
68.39	1069
68.4	1089
68.41	1115
68.42	1053
68.43	1050
68.44	1031
68.45	1061
68.46	1088
68.47	1077
68.48	1075
68.49	1087
68.5	1088
68.51	1101
68.52	1103
68.53	1080
68.54	1106
68.55	1096
68.56	1103
68.57	1076
68.58	1066
68.59	1070
68.6	1075
68.61	1107
68.62	1072
68.63	1094
68.64	1075
68.65	1071
68.66	1086
68.67	1096
68.68	1086
68.69	1094
68.7	1133
68.71	1077
68.72	1054
68.73	1095
68.74	1077
68.75	1056
68.76	1095
68.77	1095
68.78	1087
68.79	1064
68.8	1050
68.81	1076
68.82	1060
68.83	1070
68.84	1078
68.85	1100
68.86	1061
68.87	1070
68.88	1059
68.89	1089
68.9	1106
68.91	1067
68.92	1080
68.93	1101
68.94	1081
68.95	1068
68.96	1068
68.97	1055
68.98	1078
68.99	1049
69.0	1053
69.01	1059
69.02	1062
69.03	1044
69.04	1052
69.05	1034
69.06	1060
69.07	1117
69.08	1109
69.09	1077
69.1	1071
69.11	1093
69.12	1094
69.13	1102
69.14	1073
69.15	1045
69.16	1065
69.17	1097
69.18	1057
69.19	1030
69.2	1010
69.21	1047
69.22	1088
69.23	1089
69.24	1042
69.25	1036
69.26	1037
69.27	1029
69.28	1038
69.29	1063
69.3	1086
69.31	1075
69.32	1079
69.33	1073
69.34	1069
69.35	1078
69.36	1065
69.37	1069
69.38	1108
69.39	1104
69.4	1053
69.41	1032
69.42	1098
69.43	1134
69.44	1072
69.45	1071
69.46	1054
69.47	1021
69.48	1022
69.49	1082
69.5	1039
69.51	1101
69.52	1080
69.53	1091
69.54	1012
69.55	1037
69.56	1086
69.57	1086
69.58	1061
69.59	1072
69.6	1078
69.61	1079
69.62	1052
69.63	1080
69.64	1056
69.65	1057
69.66	1036
69.67	1051
69.68	1068
69.69	1051
69.7	1003
69.71	1040
69.72	1081
69.73	1046
69.74	1007
69.75	1029
69.76	1022
69.77	1014
69.78	1009
69.79	1015
69.8	1033
69.81	1057
69.82	1034
69.83	1039
69.84	1044
69.85	1047
69.86	1042
69.87	1044
69.88	1033
69.89	1074
69.9	1086
69.91	1060
69.92	1041
69.93	1026
69.94	1070
69.95	1054
69.96	1056
69.97	1031
69.98	1007
69.99	1025
70.0	1069
70.01	1082
70.02	1049
70.03	1044
70.04	1090
70.05	1076
70.06	1045
70.07	1031
70.08	1007
70.09	1051
70.1	1044
70.11	1053
70.12	1095
70.13	1073
70.14	1026
70.15	1044
70.16	1060
70.17	1066
70.18	1075
70.19	1094
70.2	1054
70.21	1017
70.22	1018
70.23	1050
70.24	1027
70.25	1015
70.26	1008
70.27	1047
70.28	1029
70.29	1039
70.3	1029
70.31	1029
70.32	1066
70.33	1071
70.34	1034
70.35	1018
70.36	1030
70.37	1040
70.38	1035
70.39	1027
70.4	1050
70.41	1071
70.42	1040
70.43	1041
70.44	1039
70.45	1025
70.46	1036
70.47	1079
70.48	1079
70.49	1037
70.5	1004
70.51	1038
70.52	1020
70.53	1057
70.54	1011
70.55	1026
70.56	1056
70.57	1043
70.58	1040
70.59	1036
70.6	1075
70.61	1078
70.62	1034
70.63	1018
70.64	1049
70.65	1021
70.66	1011
70.67	996
70.68	996
70.69	1006
70.7	1009
70.71	982
70.72	1042
70.73	1036
70.74	1025
70.75	1012
70.76	1047
70.77	1063
70.78	1058
70.79	1040
70.8	1049
70.81	1049
70.82	1002
70.83	1020
70.84	1058
70.85	1025
70.86	1021
70.87	1002
70.88	997
70.89	1005
70.9	1037
70.91	1074
70.92	1070
70.93	1025
70.94	1044
70.95	1037
70.96	1021
70.97	1026
70.98	1039
70.99	1073
71.0	1083
71.01	1054
71.02	1017
71.03	1011
71.04	1036
71.05	1056
71.06	1064
71.07	1067
71.08	1037
71.09	979
71.1	969
71.11	978
71.12	1002
71.13	987
71.14	1012
71.15	951
71.16	962
71.17	992
71.18	1024
71.19	1033
71.2	1018
71.21	1043
71.22	1015
71.23	1031
71.24	997
71.25	1014
71.26	1048
71.27	1024
71.28	1012
71.29	1015
71.3	976
71.31	953
71.32	1006
71.33	1012
71.34	1002
71.35	1003
71.36	1032
71.37	968
71.38	980
71.39	1032
71.4	1020
71.41	983
71.42	996
71.43	1020
71.44	1062
71.45	1046
71.46	1041
71.47	1011
71.48	1002
71.49	997
71.5	997
71.51	1026
71.52	1051
71.53	1000
71.54	1005
71.55	1020
71.56	1052
71.57	1013
71.58	1050
71.59	1041
71.6	1034
71.61	1002
71.62	989
71.63	943
71.64	959
71.65	1009
71.66	988
71.67	993
71.68	1043
71.69	1038
71.7	1000
71.71	1010
71.72	1004
71.73	1015
71.74	1019
71.75	1031
71.76	1032
71.77	988
71.78	1019
71.79	996
71.8	975
71.81	994
71.82	983
71.83	989
71.84	960
71.85	992
71.86	998
71.87	1001
71.88	975
71.89	1002
71.9	1037
71.91	1030
71.92	1035
71.93	1020
71.94	1005
71.95	975
71.96	981
71.97	1045
71.98	1021
71.99	1021
72.0	1022
72.01	1012
72.02	994
72.03	1037
72.04	1035
72.05	1010
72.06	993
72.07	1004
72.08	1032
72.09	1036
72.1	1007
72.11	1032
72.12	1023
72.13	975
72.14	966
72.15	1029
72.16	1049
72.17	1024
72.18	1005
72.19	1002
72.2	1027
72.21	1016
72.22	1019
72.23	1026
72.24	1047
72.25	1032
72.26	1013
72.27	1008
72.28	1009
72.29	1004
72.3	1001
72.31	953
72.32	971
72.33	987
72.34	1001
72.35	1019
72.36	1026
72.37	1012
72.38	983
72.39	1033
72.4	1032
72.41	1004
72.42	980
72.43	996
72.44	1000
72.45	988
72.46	1025
72.47	983
72.48	943
72.49	994
72.5	982
72.51	994
72.52	978
72.53	984
72.54	978
72.55	953
72.56	977
72.57	990
72.58	973
72.59	967
72.6	1029
72.61	977
72.62	985
72.63	975
72.64	1000
72.65	996
72.66	1000
72.67	985
72.68	958
72.69	1004
72.7	982
72.71	1003
72.72	983
72.73	1016
72.74	985
72.75	970
72.76	986
72.77	1009
72.78	1018
72.79	1005
72.8	966
72.81	987
72.82	970
72.83	974
72.84	1019
72.85	1017
72.86	950
72.87	973
72.88	999
72.89	991
72.9	985
72.91	963
72.92	1005
72.93	1015
72.94	1011
72.95	1004
72.96	978
72.97	987
72.98	982
72.99	1020
73.0	1005
73.01	979
73.02	965
73.03	984
73.04	1018
73.05	998
73.06	1003
73.07	983
73.08	981
73.09	970
73.1	980
73.11	997
73.12	986
73.13	1010
73.14	1020
73.15	1006
73.16	1023
73.17	1002
73.18	963
73.19	969
73.2	990
73.21	1005
73.22	1003
73.23	966
73.24	994
73.25	984
73.26	975
73.27	984
73.28	968
73.29	995
73.3	1010
73.31	984
73.32	965
73.33	978
73.34	1019
73.35	964
73.36	965
73.37	975
73.38	983
73.39	978
73.4	1015
73.41	1029
73.42	1004
73.43	977
73.44	952
73.45	987
73.46	988
73.47	954
73.48	995
73.49	1014
73.5	978
73.51	970
73.52	991
73.53	977
73.54	932
73.55	961
73.56	970
73.57	958
73.58	990
73.59	968
73.6	934
73.61	964
73.62	990
73.63	962
73.64	981
73.65	943
73.66	915
73.67	915
73.68	923
73.69	937
73.7	1030
73.71	976
73.72	994
73.73	977
73.74	980
73.75	975
73.76	944
73.77	942
73.78	941
73.79	1001
73.8	972
73.81	995
73.82	982
73.83	958
73.84	962
73.85	956
73.86	965
73.87	949
73.88	967
73.89	969
73.9	975
73.91	951
73.92	988
73.93	1026
73.94	969
73.95	963
73.96	959
73.97	958
73.98	991
73.99	965
74.0	984
74.01	987
74.02	962
74.03	944
74.04	973
74.05	974
74.06	966
74.07	939
74.08	943
74.09	982
74.1	976
74.11	978
74.12	939
74.13	972
74.14	977
74.15	939
74.16	909
74.17	914
74.18	954
74.19	949
74.2	972
74.21	977
74.22	954
74.23	933
74.24	943
74.25	957
74.26	946
74.27	957
74.28	1004
74.29	1009
74.3	1004
74.31	990
74.32	960
74.33	977
74.34	992
74.35	995
74.36	970
74.37	962
74.38	961
74.39	942
74.4	974
74.41	983
74.42	968
74.43	958
74.44	962
74.45	956
74.46	949
74.47	942
74.48	949
74.49	980
74.5	977
74.51	926
74.52	955
74.53	968
74.54	982
74.55	944
74.56	946
74.57	942
74.58	941
74.59	979
74.6	957
74.61	935
74.62	948
74.63	986
74.64	937
74.65	940
74.66	970
74.67	946
74.68	968
74.69	993
74.7	1000
74.71	989
74.72	985
74.73	977
74.74	975
74.75	981
74.76	939
74.77	948
74.78	955
74.79	945
74.8	920
74.81	940
74.82	936
74.83	952
74.84	928
74.85	941
74.86	976
74.87	940
74.88	925
74.89	919
74.9	937
74.91	989
74.92	960
74.93	926
74.94	932
74.95	977
74.96	961
74.97	937
74.98	945
74.99	988
75.0	940
75.01	959
75.02	943
75.03	917
75.04	955
75.05	963
75.06	946
75.07	951
75.08	957
75.09	990
75.1	971
75.11	955
75.12	961
75.13	956
75.14	942
75.15	969
75.16	954
75.17	946
75.18	962
75.19	951
75.2	916
75.21	938
75.22	914
75.23	939
75.24	931
75.25	962
75.26	956
75.27	954
75.28	936
75.29	938
75.3	937
75.31	920
75.32	948
75.33	934
75.34	926
75.35	916
75.36	940
75.37	974
75.38	913
75.39	915
75.4	895
75.41	911
75.42	897
75.43	945
75.44	915
75.45	922
75.46	906
75.47	913
75.48	901
75.49	871
75.5	866
75.51	932
75.52	992
75.53	978
75.54	944
75.55	919
75.56	954
75.57	957
75.58	970
75.59	988
75.6	1023
75.61	988
75.62	966
75.63	939
75.64	908
75.65	932
75.66	951
75.67	941
75.68	972
75.69	971
75.7	968
75.71	974
75.72	963
75.73	956
75.74	939
75.75	934
75.76	953
75.77	953
75.78	945
75.79	969
75.8	954
75.81	919
75.82	940
75.83	947
75.84	968
75.85	956
75.86	953
75.87	949
75.88	954
75.89	967
75.9	959
75.91	940
75.92	963
75.93	951
75.94	926
75.95	925
75.96	946
75.97	944
75.98	927
75.99	942
76.0	964
76.01	956
76.02	961
76.03	909
76.04	916
76.05	935
76.06	921
76.07	924
76.08	917
76.09	879
76.1	921
76.11	917
76.12	910
76.13	937
76.14	939
76.15	948
76.16	964
76.17	966
76.18	955
76.19	955
76.2	937
76.21	980
76.22	946
76.23	918
76.24	927
76.25	902
76.26	948
76.27	939
76.28	965
76.29	915
76.3	922
76.31	908
76.32	960
76.33	950
76.34	949
76.35	957
76.36	973
76.37	956
76.38	934
76.39	953
76.4	935
76.41	929
76.42	935
76.43	941
76.44	942
76.45	957
76.46	916
76.47	961
76.48	968
76.49	928
76.5	979
76.51	952
76.52	925
76.53	962
76.54	956
76.55	929
76.56	929
76.57	930
76.58	910
76.59	906
76.6	927
76.61	920
76.62	932
76.63	902
76.64	939
76.65	955
76.66	984
76.67	962
76.68	950
76.69	950
76.7	943
76.71	964
76.72	947
76.73	920
76.74	956
76.75	953
76.76	946
76.77	932
76.78	918
76.79	915
76.8	939
76.81	945
76.82	900
76.83	922
76.84	933
76.85	910
76.86	892
76.87	873
76.88	898
76.89	939
76.9	945
76.91	910
76.92	911
76.93	915
76.94	913
76.95	916
76.96	920
76.97	922
76.98	935
76.99	942
77.0	941
77.01	960
77.02	963
77.03	933
77.04	896
77.05	910
77.06	917
77.07	948
77.08	932
77.09	899
77.1	908
77.11	926
77.12	933
77.13	958
77.14	977
77.15	968
77.16	937
77.17	941
77.18	930
77.19	903
77.2	905
77.21	921
77.22	950
77.23	946
77.24	902
77.25	923
77.26	911
77.27	916
77.28	922
77.29	903
77.3	923
77.31	938
77.32	915
77.33	909
77.34	913
77.35	904
77.36	901
77.37	893
77.38	907
77.39	918
77.4	901
77.41	894
77.42	910
77.43	904
77.44	905
77.45	914
77.46	929
77.47	920
77.48	918
77.49	912
77.5	935
77.51	923
77.52	920
77.53	906
77.54	896
77.55	896
77.56	928
77.57	910
77.58	919
77.59	947
77.6	949
77.61	935
77.62	944
77.63	972
77.64	930
77.65	900
77.66	937
77.67	950
77.68	935
77.69	930
77.7	954
77.71	949
77.72	917
77.73	912
77.74	924
77.75	898
77.76	907
77.77	899
77.78	887
77.79	907
77.8	924
77.81	924
77.82	900
77.83	937
77.84	933
77.85	934
77.86	918
77.87	927
77.88	951
77.89	922
77.9	945
77.91	924
77.92	916
77.93	943
77.94	919
77.95	929
77.96	929
77.97	927
77.98	931
77.99	936
78.0	935
78.01	936
78.02	911
78.03	925
78.04	916
78.05	930
78.06	930
78.07	905
78.08	957
78.09	956
78.1	948
78.11	942
78.12	965
78.13	934
78.14	950
78.15	914
78.16	913
78.17	918
78.18	943
78.19	941
78.2	993
78.21	981
78.22	946
78.23	955
78.24	954
78.25	993
78.26	1002
78.27	1005
78.28	1011
78.29	1018
78.3	1041
78.31	1048
78.32	1062
78.33	1076
78.34	1014
78.35	1028
78.36	1033
78.37	1063
78.38	1071
78.39	1049
78.4	1084
78.41	1087
78.42	1083
78.43	1099
78.44	1068
78.45	1082
78.46	1111
78.47	1171
78.48	1182
78.49	1224
78.5	1223
78.51	1222
78.52	1291
78.53	1355
78.54	1471
78.55	1517
78.56	1687
78.57	1856
78.58	2000
78.59	2146
78.6	2327
78.61	2552
78.62	2922
78.63	3180
78.64	3462
78.65	3745
78.66	4058
78.67	4378
78.68	4728
78.69	5037
78.7	5312
78.71	5578
78.72	5899
78.73	6116
78.74	6242
78.75	6232
78.76	6096
78.77	5921
78.78	5629
78.79	5168
78.8	4786
78.81	4340
78.82	3845
78.83	3589
78.84	3360
78.85	3169
78.86	3009
78.87	2909
78.88	2923
78.89	2960
78.9	3081
78.91	3140
78.92	3243
78.93	3321
78.94	3438
78.95	3566
78.96	3644
78.97	3674
78.98	3643
78.99	3557
79.0	3432
79.01	3339
79.02	3052
79.03	2859
79.04	2675
79.05	2417
79.06	2124
79.07	1950
79.08	1811
79.09	1629
79.1	1463
79.11	1371
79.12	1322
79.13	1221
79.14	1211
79.15	1199
79.16	1143
79.17	1124
79.18	1079
79.19	1100
79.2	1049
79.21	1052
79.22	1033
79.23	1011
79.24	1004
79.25	1027
79.26	1001
79.27	943
79.28	946
79.29	955
79.3	998
79.31	977
79.32	963
79.33	961
79.34	974
79.35	973
79.36	961
79.37	957
79.38	991
79.39	936
79.4	946
79.41	950
79.42	938
79.43	955
79.44	930
79.45	914
79.46	906
79.47	940
79.48	922
79.49	910
79.5	926
79.51	933
79.52	902
79.53	888
79.54	891
79.55	900
79.56	932
79.57	904
79.58	909
79.59	911
79.6	883
79.61	906
79.62	919
79.63	912
79.64	918
79.65	938
79.66	904
79.67	892
79.68	904
79.69	869
79.7	898
79.71	918
79.72	908
79.73	901
79.74	895
79.75	896
79.76	914
79.77	928
79.78	928
79.79	899
79.8	899
79.81	895
79.82	928
79.83	882
79.84	905
79.85	901
79.86	947
79.87	920
79.88	915
79.89	905
79.9	882
79.91	885
79.92	913
79.93	928
79.94	882
79.95	903
79.96	890
79.97	887
79.98	888
79.99	881
80.0	854
80.01	895
80.02	924
80.03	886
80.04	856
80.05	831
80.06	837
80.07	890
80.08	884
80.09	886
80.1	909
80.11	895
80.12	915
80.13	935
80.14	878
80.15	850
80.16	881
80.17	881
80.18	902
80.19	918
80.2	911
80.21	908
80.22	893
80.23	872
80.24	856
80.25	888
80.26	870
80.27	872
80.28	888
80.29	846
80.3	876
80.31	902
80.32	901
80.33	857
80.34	844
80.35	881
80.36	883
80.37	905
80.38	930
80.39	920
80.4	880
80.41	870
80.42	873
80.43	872
80.44	841
80.45	857
80.46	865
80.47	868
80.48	893
80.49	888
80.5	850
80.51	873
80.52	888
80.53	881
80.54	861
80.55	884
80.56	882
80.57	882
80.58	864
80.59	866
80.6	907
80.61	891
80.62	893
80.63	896
80.64	874
80.65	853
80.66	872
80.67	888
80.68	857
80.69	852
80.7	849
80.71	839
80.72	830
80.73	867
80.74	886
80.75	877
80.76	854
80.77	872
80.78	865
80.79	857
80.8	854
80.81	876
80.82	866
80.83	854
80.84	856
80.85	861
80.86	840
80.87	870
80.88	892
80.89	865
80.9	840
80.91	817
80.92	834
80.93	906
80.94	859
80.95	857
80.96	864
80.97	878
80.98	850
80.99	859
81.0	861
81.01	868
81.02	881
81.03	861
81.04	859
81.05	842
81.06	840
81.07	868
81.08	843
81.09	823
81.1	845
81.11	856
81.12	884
81.13	846
81.14	844
81.15	828
81.16	864
81.17	873
81.18	846
81.19	854
81.2	854
81.21	875
81.22	902
81.23	878
81.24	911
81.25	866
81.26	852
81.27	893
81.28	880
81.29	910
81.3	871
81.31	830
81.32	816
81.33	819
81.34	826
81.35	833
81.36	839
81.37	855
81.38	880
81.39	823
81.4	809
81.41	819
81.42	824
81.43	830
81.44	843
81.45	818
81.46	820
81.47	823
81.48	821
81.49	814
81.5	809
81.51	834
81.52	867
81.53	869
81.54	859
81.55	869
81.56	816
81.57	818
81.58	856
81.59	863
81.6	861
81.61	850
81.62	862
81.63	853
81.64	845
81.65	856
81.66	859
81.67	857
81.68	858
81.69	820
81.7	830
81.71	853
81.72	848
81.73	847
81.74	875
81.75	838
81.76	854
81.77	861
81.78	857
81.79	863
81.8	825
81.81	847
81.82	825
81.83	841
81.84	859
81.85	864
81.86	856
81.87	844
81.88	813
81.89	840
81.9	848
81.91	845
81.92	869
81.93	847
81.94	825
81.95	837
81.96	835
81.97	857
81.98	845
81.99	854
82.0	867
82.01	886
82.02	849
82.03	841
82.04	843
82.05	835
82.06	863
82.07	861
82.08	828
82.09	815
82.1	833
82.11	836
82.12	842
82.13	867
82.14	847
82.15	854
82.16	891
82.17	893
82.18	834
82.19	864
82.2	875
82.21	833
82.22	837
82.23	828
82.24	852
82.25	856
82.26	830
82.27	863
82.28	859
82.29	857
82.3	851
82.31	845
82.32	872
82.33	873
82.34	883
82.35	862
82.36	877
82.37	882
82.38	888
82.39	872
82.4	862
82.41	848
82.42	924
82.43	910
82.44	903
82.45	908
82.46	927
82.47	929
82.48	912
82.49	942
82.5	944
82.51	927
82.52	912
82.53	972
82.54	1008
82.55	1002
82.56	980
82.57	935
82.58	963
82.59	983
82.6	975
82.61	973
82.62	1009
82.63	992
82.64	977
82.65	963
82.66	939
82.67	996
82.68	1002
82.69	1006
82.7	1022
82.71	1006
82.72	1019
82.73	1091
82.74	1115
82.75	1146
82.76	1179
82.77	1281
82.78	1321
82.79	1360
82.8	1479
82.81	1570
82.82	1676
82.83	1878
82.84	2115
82.85	2321
82.86	2615
82.87	2889
82.88	3207
82.89	3527
82.9	3949
82.91	4245
82.92	4557
82.93	4915
82.94	5198
82.95	5555
82.96	5806
82.97	6039
82.98	6379
82.99	6500
83.0	6276
83.01	6028
83.02	5839
83.03	5497
83.04	5023
83.05	4460
83.06	3978
83.07	3569
83.08	3188
83.09	2857
83.1	2757
83.11	2643
83.12	2594
83.13	2551
83.14	2551
83.15	2668
83.16	2818
83.17	2919
83.18	3045
83.19	3203
83.2	3398
83.21	3517
83.22	3571
83.23	3639
83.24	3582
83.25	3654
83.26	3631
83.27	3418
83.28	3154
83.29	2902
83.3	2651
83.31	2457
83.32	2224
83.33	2020
83.34	1817
83.35	1614
83.36	1498
83.37	1344
83.38	1234
83.39	1185
83.4	1142
83.41	1088
83.42	1094
83.43	1070
83.44	1039
83.45	1000
83.46	992
83.47	982
83.48	979
83.49	964
83.5	960
83.51	970
83.52	980
83.53	928
83.54	899
83.55	910
83.56	917
83.57	907
83.58	902
83.59	888
83.6	916
83.61	899
83.62	868
83.63	828
83.64	865
83.65	870
83.66	862
83.67	858
83.68	884
83.69	890
83.7	886
83.71	884
83.72	852
83.73	850
83.74	875
83.75	886
83.76	890
83.77	859
83.78	823
83.79	814
83.8	839
83.81	819
83.82	817
83.83	817
83.84	826
83.85	798
83.86	788
83.87	838
83.88	871
83.89	854
83.9	832
83.91	838
83.92	822
83.93	805
83.94	792
83.95	812
83.96	817
83.97	806
83.98	816
83.99	831
84.0	816
84.01	813
84.02	804
84.03	812
84.04	832
84.05	815
84.06	833
84.07	800
84.08	790
84.09	820
84.1	842
84.11	851
84.12	810
84.13	821
84.14	795
84.15	795
84.16	821
84.17	815
84.18	819
84.19	801
84.2	794
84.21	822
84.22	831
84.23	815
84.24	808
84.25	822
84.26	827
84.27	819
84.28	781
84.29	787
84.3	793
84.31	812
84.32	807
84.33	793
84.34	782
84.35	764
84.36	775
84.37	805
84.38	792
84.39	786
84.4	791
84.41	785
84.42	768
84.43	799
84.44	819
84.45	803
84.46	783
84.47	778
84.48	781
84.49	815
84.5	783
84.51	818
84.52	794
84.53	782
84.54	801
84.55	790
84.56	779
84.57	818
84.58	822
84.59	810
84.6	800
84.61	800
84.62	805
84.63	808
84.64	806
84.65	795
84.66	784
84.67	801
84.68	809
84.69	788
84.7	784
84.71	812
84.72	799
84.73	807
84.74	828
84.75	790
84.76	786
84.77	779
84.78	793
84.79	788
84.8	787
84.81	803
84.82	808
84.83	798
84.84	805
84.85	794
84.86	792
84.87	778
84.88	781
84.89	783
84.9	785
84.91	796
84.92	778
84.93	794
84.94	803
84.95	777
84.96	776
84.97	775
84.98	759
84.99	752
85.0	766
85.01	740
85.02	745
85.03	803
85.04	812
85.05	789
85.06	751
85.07	748
85.08	753
85.09	759
85.1	744
85.11	748
85.12	785
85.13	788
85.14	761
85.15	779
85.16	776
85.17	784
85.18	771
85.19	770
85.2	779
85.21	762
85.22	792
85.23	808
85.24	774
85.25	763
85.26	784
85.27	767
85.28	750
85.29	775
85.3	785
85.31	780
85.32	753
85.33	737
85.34	725
85.35	743
85.36	761
85.37	767
85.38	764
85.39	778
85.4	756
85.41	766
85.42	758
85.43	750
85.44	745
85.45	729
85.46	746
85.47	788
85.48	795
85.49	773
85.5	773
85.51	789
85.52	772
85.53	765
85.54	766
85.55	799
85.56	790
85.57	782
85.58	766
85.59	761
85.6	755
85.61	776
85.62	773
85.63	765
85.64	766
85.65	752
85.66	745
85.67	757
85.68	776
85.69	797
85.7	790
85.71	753
85.72	735
85.73	788
85.74	780
85.75	758
85.76	750
85.77	758
85.78	738
85.79	741
85.8	740
85.81	720
85.82	761
85.83	748
85.84	712
85.85	744
85.86	767
85.87	765
85.88	750
85.89	744
85.9	748
85.91	757
85.92	775
85.93	750
85.94	720
85.95	739
85.96	788
85.97	778
85.98	776
85.99	766
86.0	753
86.01	747
86.02	765
86.03	743
86.04	784
86.05	800
86.06	773
86.07	754
86.08	745
86.09	761
86.1	748
86.11	752
86.12	784
86.13	776
86.14	787
86.15	788
86.16	766
86.17	783
86.18	760
86.19	775
86.2	778
86.21	752
86.22	716
86.23	732
86.24	777
86.25	764
86.26	755
86.27	724
86.28	746
86.29	769
86.3	766
86.31	757
86.32	760
86.33	760
86.34	752
86.35	757
86.36	733
86.37	743
86.38	766
86.39	766
86.4	761
86.41	774
86.42	755
86.43	748
86.44	729
86.45	751
86.46	746
86.47	760
86.48	740
86.49	732
86.5	755
86.51	779
86.52	756
86.53	738
86.54	750
86.55	778
86.56	760
86.57	700
86.58	709
86.59	736
86.6	765
86.61	774
86.62	762
86.63	741
86.64	734
86.65	789
86.66	783
86.67	769
86.68	754
86.69	747
86.7	752
86.71	748
86.72	747
86.73	763
86.74	744
86.75	728
86.76	744
86.77	770
86.78	748
86.79	764
86.8	776
86.81	764
86.82	745
86.83	728
86.84	732
86.85	750
86.86	760
86.87	781
86.88	758
86.89	739
86.9	733
86.91	728
86.92	733
86.93	737
86.94	762
86.95	755
86.96	729
86.97	743
86.98	759
86.99	769
87.0	759
87.01	750
87.02	763
87.03	751
87.04	748
87.05	737
87.06	753
87.07	733
87.08	717
87.09	733
87.1	742
87.11	747
87.12	758
87.13	738
87.14	751
87.15	769
87.16	756
87.17	751
87.18	762
87.19	766
87.2	755
87.21	743
87.22	733
87.23	737
87.24	730
87.25	740
87.26	766
87.27	773
87.28	748
87.29	740
87.3	726
87.31	751
87.32	771
87.33	760
87.34	747
87.35	754
87.36	763
87.37	748
87.38	719
87.39	742
87.4	765
87.41	745
87.42	735
87.43	750
87.44	760
87.45	764
87.46	745
87.47	739
87.48	746
87.49	753
87.5	758
87.51	732
87.52	725
87.53	742
87.54	747
87.55	748
87.56	721
87.57	723
87.58	732
87.59	725
87.6	737
87.61	743
87.62	769
87.63	750
87.64	728
87.65	736
87.66	730
87.67	737
87.68	745
87.69	751
87.7	757
87.71	750
87.72	749
87.73	764
87.74	755
87.75	745
87.76	745
87.77	733
87.78	735
87.79	736
87.8	734
87.81	764
87.82	759
87.83	738
87.84	725
87.85	724
87.86	729
87.87	762
87.88	747
87.89	705
87.9	724
87.91	737
87.92	724
87.93	718
87.94	741
87.95	743
87.96	734
87.97	755
87.98	763
87.99	775
88.0	768
88.01	744
88.02	750
88.03	751
88.04	727
88.05	735
88.06	732
88.07	744
88.08	766
88.09	768
88.1	740
88.11	738
88.12	746
88.13	731
88.14	741
88.15	767
88.16	749
88.17	715
88.18	737
88.19	755
88.2	758
88.21	740
88.22	713
88.23	722
88.24	728
88.25	742
88.26	744
88.27	755
88.28	770
88.29	753
88.3	717
88.31	733
88.32	742
88.33	712
88.34	710
88.35	728
88.36	726
88.37	720
88.38	719
88.39	716
88.4	738
88.41	740
88.42	732
88.43	726
88.44	722
88.45	727
88.46	709
88.47	704
88.48	707
88.49	710
88.5	722
88.51	744
88.52	734
88.53	713
88.54	731
88.55	736
88.56	723
88.57	728
88.58	735
88.59	717
88.6	710
88.61	722
88.62	725
88.63	737
88.64	733
88.65	725
88.66	732
88.67	727
88.68	744
88.69	754
88.7	737
88.71	726
88.72	717
88.73	722
88.74	728
88.75	742
88.76	759
88.77	715
88.78	707
88.79	719
88.8	709
88.81	704
88.82	722
88.83	724
88.84	717
88.85	706
88.86	705
88.87	726
88.88	728
88.89	734
88.9	712
88.91	724
88.92	741
88.93	735
88.94	737
88.95	725
88.96	712
88.97	735
88.98	737
88.99	734
89.0	756
89.01	740
89.02	740
89.03	766
89.04	750
89.05	731
89.06	749
89.07	768
89.08	759
89.09	729
89.1	713
89.11	712
89.12	717
89.13	721
89.14	741
89.15	758
89.16	751
89.17	756
89.18	754
89.19	755
89.2	757
89.21	742
89.22	737
89.23	727
89.24	732
89.25	737
89.26	723
89.27	715
89.28	707
89.29	715
89.3	715
89.31	722
89.32	717
89.33	697
89.34	703
89.35	718
89.36	715
89.37	724
89.38	737
89.39	741
89.4	734
89.41	731
89.42	736
89.43	733
89.44	731
89.45	741
89.46	746
89.47	740
89.48	726
89.49	740
89.5	731
89.51	699
89.52	692
89.53	717
89.54	728
89.55	738
89.56	738
89.57	723
89.58	715
89.59	716
89.6	736
89.61	742
89.62	727
89.63	720
89.64	730
89.65	728
89.66	699
89.67	706
89.68	736
89.69	738
89.7	724
89.71	710
89.72	704
89.73	706
89.74	738
89.75	748
89.76	732
89.77	732
89.78	728
89.79	725
89.8	738
89.81	750
89.82	741
89.83	735
89.84	740
89.85	744
89.86	720
89.87	721
89.88	746
89.89	746
89.9	721
89.91	730
89.92	743
89.93	714
89.94	718
89.95	721
89.96	700
89.97	717
89.98	742
89.99	723
90.0	703
90.01	684
90.02	691
90.03	727
90.04	729
90.05	701
90.06	693
90.07	712
90.08	708
90.09	708
90.1	736
90.11	739
90.12	721
90.13	715
90.14	726
90.15	738
90.16	739
90.17	724
90.18	731
90.19	756
90.2	746
90.21	717
90.22	725
90.23	714
90.24	709
90.25	737
90.26	723
90.27	718
90.28	737
90.29	727
90.3	704
90.31	713
90.32	714
90.33	694
90.34	687
90.35	700
90.36	713
90.37	716
90.38	715
90.39	715
90.4	717
90.41	726
90.42	726
90.43	705
90.44	693
90.45	698
90.46	712
90.47	726
90.48	722
90.49	710
90.5	699
90.51	701
90.52	709
90.53	696
90.54	690
90.55	701
90.56	727
90.57	740
90.58	733
90.59	717
90.6	694
90.61	685
90.62	691
90.63	694
90.64	688
90.65	685
90.66	705
90.67	708
90.68	688
90.69	678
90.7	683
90.71	686
90.72	693
90.73	705
90.74	698
90.75	694
90.76	712
90.77	713
90.78	697
90.79	710
90.8	728
90.81	728
90.82	716
90.83	712
90.84	729
90.85	740
90.86	740
90.87	736
90.88	723
90.89	730
90.9	729
90.91	701
90.92	699
90.93	701
90.94	695
90.95	698
90.96	704
90.97	713
90.98	723
90.99	728
91.0	733
91.01	709
91.02	699
91.03	706
91.04	683
91.05	676
91.06	683
91.07	682
91.08	689
91.09	703
91.1	715
91.11	708
91.12	693
91.13	719
91.14	741
91.15	734
91.16	747
91.17	752
91.18	740
91.19	731
91.2	712
91.21	707
91.22	718
91.23	725
91.24	726
91.25	721
91.26	707
91.27	695
91.28	702
91.29	716
91.3	732
91.31	720
91.32	707
91.33	694
91.34	683
91.35	710
91.36	729
91.37	705
91.38	684
91.39	714
91.4	742
91.41	726
91.42	705
91.43	697
91.44	710
91.45	715
91.46	705
91.47	706
91.48	710
91.49	724
91.5	700
91.51	683
91.52	703
91.53	718
91.54	716
91.55	712
91.56	715
91.57	712
91.58	731
91.59	734
91.6	692
91.61	683
91.62	715
91.63	725
91.64	727
91.65	721
91.66	696
91.67	682
91.68	685
91.69	701
91.7	704
91.71	687
91.72	696
91.73	705
91.74	705
91.75	724
91.76	738
91.77	734
91.78	719
91.79	708
91.8	724
91.81	719
91.82	685
91.83	678
91.84	700
91.85	707
91.86	715
91.87	737
91.88	743
91.89	740
91.9	737
91.91	730
91.92	720
91.93	720
91.94	707
91.95	698
91.96	702
91.97	694
91.98	700
91.99	712
92.0	721
92.01	713
92.02	694
92.03	680
92.04	686
92.05	694
92.06	710
92.07	738
92.08	736
92.09	710
92.1	702
92.11	707
92.12	697
92.13	683
92.14	683
92.15	689
92.16	708
92.17	693
92.18	689
92.19	702
92.2	698
92.21	701
92.22	712
92.23	705
92.24	707
92.25	709
92.26	709
92.27	723
92.28	727
92.29	724
92.3	722
92.31	719
92.32	704
92.33	705
92.34	723
92.35	714
92.36	723
92.37	728
92.38	713
92.39	715
92.4	727
92.41	721
92.42	717
92.43	702
92.44	686
92.45	699
92.46	711
92.47	700
92.48	714
92.49	726
92.5	707
92.51	704
92.52	705
92.53	702
92.54	700
92.55	684
92.56	699
92.57	723
92.58	713
92.59	690
92.6	688
92.61	681
92.62	680
92.63	698
92.64	717
92.65	711
92.66	691
92.67	694
92.68	701
92.69	712
92.7	695
92.71	689
92.72	713
92.73	723
92.74	704
92.75	692
92.76	709
92.77	689
92.78	667
92.79	689
92.8	703
92.81	708
92.82	701
92.83	669
92.84	681
92.85	718
92.86	709
92.87	700
92.88	708
92.89	698
92.9	696
92.91	700
92.92	691
92.93	689
92.94	691
92.95	681
92.96	675
92.97	678
92.98	691
92.99	704
93.0	722
93.01	707
93.02	680
93.03	686
93.04	687
93.05	695
93.06	720
93.07	704
93.08	672
93.09	685
93.1	717
93.11	714
93.12	701
93.13	696
93.14	691
93.15	698
93.16	702
93.17	687
93.18	697
93.19	714
93.2	695
93.21	699
93.22	704
93.23	723
93.24	716
93.25	682
93.26	685
93.27	688
93.28	686
93.29	696
93.3	715
93.31	724
93.32	739
93.33	715
93.34	700
93.35	712
93.36	696
93.37	681
93.38	691
93.39	706
93.4	702
93.41	693
93.42	707
93.43	706
93.44	712
93.45	707
93.46	690
93.47	691
93.48	686
93.49	680
93.5	675
93.51	699
93.52	716
93.53	703
93.54	686
93.55	685
93.56	691
93.57	709
93.58	728
93.59	720
93.6	703
93.61	689
93.62	701
93.63	708
93.64	701
93.65	689
93.66	671
93.67	700
93.68	716
93.69	686
93.7	664
93.71	688
93.72	702
93.73	690
93.74	675
93.75	661
93.76	658
93.77	672
93.78	695
93.79	722
93.8	724
93.81	700
93.82	684
93.83	673
93.84	684
93.85	684
93.86	692
93.87	677
93.88	673
93.89	705
93.9	731
93.91	709
93.92	696
93.93	682
93.94	709
93.95	720
93.96	702
93.97	705
93.98	701
93.99	691
94.0	698
94.01	695
94.02	673
94.03	678
94.04	693
94.05	690
94.06	674
94.07	685
94.08	696
94.09	697
94.1	690
94.11	681
94.12	696
94.13	702
94.14	696
94.15	693
94.16	709
94.17	718
94.18	750
94.19	751
94.2	737
94.21	723
94.22	711
94.23	702
94.24	693
94.25	686
94.26	705
94.27	741
94.28	736
94.29	705
94.3	714
94.31	710
94.32	713
94.33	722
94.34	703
94.35	697
94.36	697
94.37	701
94.38	705
94.39	715
94.4	720
94.41	695
94.42	690
94.43	701
94.44	706
94.45	695
94.46	697
94.47	703
94.48	701
94.49	660
94.5	674
94.51	704
94.52	714
94.53	697
94.54	683
94.55	676
94.56	692
94.57	711
94.58	707
94.59	694
94.6	696
94.61	701
94.62	703
94.63	712
94.64	702
94.65	710
94.66	724
94.67	728
94.68	706
94.69	674
94.7	692
94.71	685
94.72	704
94.73	700
94.74	677
94.75	680
94.76	677
94.77	685
94.78	690
94.79	701
94.8	719
94.81	706
94.82	678
94.83	680
94.84	700
94.85	696
94.86	721
94.87	712
94.88	705
94.89	688
94.9	692
94.91	685
94.92	709
94.93	684
94.94	674
94.95	679
94.96	694
94.97	726
94.98	710
94.99	693
95.0	686
95.01	694
95.02	702
95.03	698
95.04	687
95.05	676
95.06	669
95.07	685
95.08	714
95.09	713
95.1	691
95.11	695
95.12	701
95.13	709
95.14	709
95.15	689
95.16	687
95.17	696
95.18	694
95.19	681
95.2	701
95.21	686
95.22	696
95.23	733
95.24	716
95.25	688
95.26	700
95.27	693
95.28	671
95.29	663
95.3	678
95.31	687
95.32	693
95.33	683
95.34	693
95.35	696
95.36	713
95.37	714
95.38	718
95.39	689
95.4	703
95.41	710
95.42	715
95.43	719
95.44	720
95.45	712
95.46	697
95.47	679
95.48	679
95.49	696
95.5	684
95.51	650
95.52	644
95.53	678
95.54	697
95.55	706
95.56	720
95.57	701
95.58	705
95.59	741
95.6	738
95.61	726
95.62	701
95.63	694
95.64	707
95.65	716
95.66	695
95.67	702
95.68	697
95.69	653
95.7	659
95.71	698
95.72	680
95.73	690
95.74	711
95.75	711
95.76	675
95.77	668
95.78	714
95.79	689
95.8	672
95.81	688
95.82	704
95.83	730
95.84	730
95.85	724
95.86	716
95.87	699
95.88	696
95.89	692
95.9	700
95.91	689
95.92	683
95.93	731
95.94	731
95.95	724
95.96	745
95.97	709
95.98	661
95.99	678
96.0	697
96.01	709
96.02	692
96.03	680
96.04	704
96.05	720
96.06	717
96.07	709
96.08	682
96.09	679
96.1	704
96.11	709
96.12	713
96.13	717
96.14	690
96.15	710
96.16	706
96.17	691
96.18	662
96.19	672
96.2	726
96.21	724
96.22	685
96.23	682
96.24	699
96.25	718
96.26	681
96.27	689
96.28	710
96.29	687
96.3	666
96.31	662
96.32	662
96.33	690
96.34	700
96.35	700
96.36	717
96.37	688
96.38	717
96.39	726
96.4	728
96.41	693
96.42	708
96.43	704
96.44	708
96.45	693
96.46	685
96.47	688
96.48	679
96.49	676
96.5	680
96.51	691
96.52	679
96.53	675
96.54	673
96.55	684
96.56	706
96.57	708
96.58	720
96.59	713
96.6	705
96.61	719
96.62	720
96.63	687
96.64	687
96.65	651
96.66	681
96.67	692
96.68	686
96.69	679
96.7	692
96.71	709
96.72	717
96.73	700
96.74	696
96.75	706
96.76	691
96.77	675
96.78	681
96.79	697
96.8	681
96.81	674
96.82	691
96.83	712
96.84	687
96.85	677
96.86	714
96.87	714
96.88	697
96.89	703
96.9	698
96.91	699
96.92	696
96.93	681
96.94	670
96.95	694
96.96	726
96.97	719
96.98	711
96.99	738
97.0	693
97.01	670
97.02	678
97.03	696
97.04	700
97.05	690
97.06	682
97.07	687
97.08	681
97.09	690
97.1	682
97.11	696
97.12	709
97.13	736
97.14	711
97.15	697
97.16	671
97.17	682
97.18	698
97.19	676
97.2	674
97.21	669
97.22	656
97.23	650
97.24	678
97.25	692
97.26	721
97.27	723
97.28	714
97.29	707
97.3	693
97.31	703
97.32	695
97.33	704
97.34	712
97.35	698
97.36	695
97.37	714
97.38	693
97.39	695
97.4	707
97.41	688
97.42	685
97.43	669
97.44	671
97.45	671
97.46	700
97.47	705
97.48	686
97.49	696
97.5	703
97.51	688
97.52	684
97.53	694
97.54	709
97.55	726
97.56	718
97.57	706
97.58	729
97.59	714
97.6	691
97.61	667
97.62	667
97.63	675
97.64	662
97.65	672
97.66	679
97.67	691
97.68	728
97.69	722
97.7	700
97.71	676
97.72	661
97.73	676
97.74	664
97.75	670
97.76	694
97.77	716
97.78	706
97.79	706
97.8	692
97.81	693
97.82	696
97.83	685
97.84	683
97.85	695
97.86	684
97.87	729
97.88	717
97.89	715
97.9	696
97.91	707
97.92	695
97.93	685
97.94	688
97.95	691
97.96	709
97.97	704
97.98	697
97.99	720
98.0	710
98.01	668
98.02	672
98.03	711
98.04	682
98.05	689
98.06	690
98.07	672
98.08	707
98.09	733
98.1	741
98.11	719
98.12	710
98.13	713
98.14	696
98.15	694
98.16	690
98.17	677
98.18	666
98.19	680
98.2	707
98.21	690
98.22	714
98.23	732
98.24	707
98.25	682
98.26	676
98.27	704
98.28	677
98.29	692
98.3	688
98.31	681
98.32	675
98.33	660
98.34	690
98.35	698
98.36	708
98.37	717
98.38	693
98.39	671
98.4	689
98.41	713
98.42	685
98.43	665
98.44	704
98.45	722
98.46	684
98.47	641
98.48	665
98.49	671
98.5	679
98.51	650
98.52	703
98.53	697
98.54	689
98.55	701
98.56	680
98.57	662
98.58	679
98.59	715
98.6	705
98.61	685
98.62	706
98.63	697
98.64	702
98.65	698
98.66	675
98.67	699
98.68	721
98.69	694
98.7	693
98.71	675
98.72	697
98.73	703
98.74	722
98.75	748
98.76	681
98.77	708
98.78	694
98.79	675
98.8	684
98.81	700
98.82	686
98.83	686
98.84	702
98.85	707
98.86	695
98.87	707
98.88	720
98.89	708
98.9	718
98.91	734
98.92	706
98.93	690
98.94	679
98.95	706
98.96	719
98.97	704
98.98	691
98.99	714
99.0	709
99.01	703
99.02	726
99.03	731
99.04	721
99.05	715
99.06	718
99.07	716
99.08	719
99.09	713
99.1	745
99.11	754
99.12	742
99.13	706
99.14	715
99.15	711
99.16	734
99.17	768
99.18	764
99.19	756
99.2	741
99.21	730
99.22	729
99.23	713
99.24	703
99.25	717
99.26	754
99.27	752
99.28	719
99.29	711
99.3	742
99.31	710
99.32	748
99.33	751
99.34	790
99.35	754
99.36	759
99.37	759
99.38	749
99.39	755
99.4	740
99.41	748
99.42	742
99.43	762
99.44	777
99.45	753
99.46	749
99.47	747
99.48	735
99.49	779
99.5	797
99.51	818
99.52	852
99.53	799
99.54	824
99.55	840
99.56	832
99.57	832
99.58	875
99.59	922
99.6	912
99.61	976
99.62	1006
99.63	1035
99.64	1054
99.65	1112
99.66	1189
99.67	1300
99.68	1378
99.69	1407
99.7	1530
99.71	1709
99.72	1791
99.73	1907
99.74	2041
99.75	2196
99.76	2384
99.77	2457
99.78	2606
99.79	2797
99.8	2832
99.81	2859
99.82	2903
99.83	2932
99.84	2922
99.85	2889
99.86	2738
99.87	2568
99.88	2441
99.89	2281
99.9	2138
99.91	1917
99.92	1816
99.93	1688
99.94	1595
99.95	1532
99.96	1439
99.97	1349
99.98	1266
99.99	1269
100.0	1273
