Single_LiMnO2_long_s
Wavelength = 1.54059 Ã… (Cu)
10.0	5112
10.01	5081
10.02	4997
10.03	5057
10.04	5024
10.05	5037
10.06	5076
10.07	5088
10.08	5074
10.09	5129
10.1	5138
10.11	5147
10.12	5125
10.13	5154
10.14	5146
10.15	5216
10.16	5113
10.17	5076
10.18	5168
10.19	5192
10.2	5202
10.21	5144
10.22	5205
10.23	5155
10.24	5149
10.25	5224
10.26	5268
10.27	5150
10.28	5167
10.29	5099
10.3	5135
10.31	5235
10.32	5273
10.33	5215
10.34	5283
10.35	5357
10.36	5351
10.37	5276
10.38	5309
10.39	5409
10.4	5408
10.41	5372
10.42	5359
10.43	5342
10.44	5330
10.45	5303
10.46	5343
10.47	5336
10.48	5335
10.49	5318
10.5	5414
10.51	5324
10.52	5368
10.53	5443
10.54	5355
10.55	5316
10.56	5347
10.57	5426
10.58	5528
10.59	5605
10.6	5531
10.61	5504
10.62	5502
10.63	5456
10.64	5486
10.65	5520
10.66	5528
10.67	5494
10.68	5494
10.69	5482
10.7	5536
10.71	5507
10.72	5536
10.73	5551
10.74	5484
10.75	5603
10.76	5607
10.77	5700
10.78	5644
10.79	5501
10.8	5521
10.81	5561
10.82	5617
10.83	5627
10.84	5579
10.85	5607
10.86	5643
10.87	5691
10.88	5679
10.89	5576
10.9	5537
10.91	5656
10.92	5624
10.93	5705
10.94	5617
10.95	5736
10.96	5686
10.97	5733
10.98	5756
10.99	5860
11.0	5820
11.01	5776
11.02	5825
11.03	5749
11.04	5775
11.05	5825
11.06	5839
11.07	5796
11.08	5819
11.09	5797
11.1	5840
11.11	5885
11.12	5840
11.13	5863
11.14	5820
11.15	5809
11.16	5962
11.17	5951
11.18	5927
11.19	5946
11.2	5947
11.21	5945
11.22	5919
11.23	5922
11.24	5880
11.25	5900
11.26	6018
11.27	5984
11.28	5967
11.29	5973
11.3	5949
11.31	5922
11.32	5952
11.33	6048
11.34	5974
11.35	6017
11.36	5997
11.37	6048
11.38	6051
11.39	6116
11.4	6149
11.41	6084
11.42	6036
11.43	6111
11.44	6109
11.45	6153
11.46	6138
11.47	6202
11.48	6216
11.49	6132
11.5	6143
11.51	6235
11.52	6185
11.53	6038
11.54	6101
11.55	6194
11.56	6186
11.57	6202
11.58	6227
11.59	6239
11.6	6199
11.61	6344
11.62	6266
11.63	6120
11.64	6182
11.65	6163
11.66	6263
11.67	6300
11.68	6316
11.69	6347
11.7	6377
11.71	6391
11.72	6314
11.73	6364
11.74	6442
11.75	6422
11.76	6397
11.77	6364
11.78	6524
11.79	6413
11.8	6437
11.81	6456
11.82	6473
11.83	6502
11.84	6440
11.85	6404
11.86	6428
11.87	6463
11.88	6512
11.89	6508
11.9	6572
11.91	6622
11.92	6607
11.93	6481
11.94	6509
11.95	6581
11.96	6559
11.97	6572
11.98	6556
11.99	6503
12.0	6574
12.01	6678
12.02	6584
12.03	6535
12.04	6571
12.05	6606
12.06	6592
12.07	6599
12.08	6545
12.09	6641
12.1	6682
12.11	6661
12.12	6633
12.13	6704
12.14	6708
12.15	6828
12.16	6781
12.17	6654
12.18	6692
12.19	6760
12.2	6758
12.21	6845
12.22	6797
12.23	6816
12.24	6858
12.25	6842
12.26	6786
12.27	6827
12.28	6782
12.29	6875
12.3	6956
12.31	6921
12.32	6871
12.33	6948
12.34	6859
12.35	6839
12.36	6905
12.37	6913
12.38	6918
12.39	6908
12.4	6937
12.41	7065
12.42	7051
12.43	7043
12.44	7051
12.45	6946
12.46	6926
12.47	6945
12.48	7096
12.49	7105
12.5	7150
12.51	7133
12.52	7113
12.53	7134
12.54	7208
12.55	7286
12.56	7244
12.57	7273
12.58	7345
12.59	7404
12.6	7352
12.61	7357
12.62	7414
12.63	7416
12.64	7479
12.65	7431
12.66	7445
12.67	7411
12.68	7437
12.69	7496
12.7	7515
12.71	7469
12.72	7452
12.73	7465
12.74	7608
12.75	7678
12.76	7641
12.77	7597
12.78	7681
12.79	7720
12.8	7795
12.81	7644
12.82	7642
12.83	7750
12.84	7760
12.85	7915
12.86	8007
12.87	7901
12.88	7927
12.89	8023
12.9	8027
12.91	7964
12.92	7950
12.93	8096
12.94	8102
12.95	8004
12.96	8127
12.97	8179
12.98	8175
12.99	8108
13.0	8183
13.01	8292
13.02	8212
13.03	8296
13.04	8264
13.05	8387
13.06	8555
13.07	8501
13.08	8408
13.09	8572
13.1	8493
13.11	8503
13.12	8560
13.13	8607
13.14	8686
13.15	8809
13.16	8799
13.17	8872
13.18	8885
13.19	8919
13.2	8891
13.21	8941
13.22	9098
13.23	9100
13.24	9152
13.25	9160
13.26	9165
13.27	9246
13.28	9360
13.29	9291
13.3	9326
13.31	9309
13.32	9498
13.33	9439
13.34	9590
13.35	9562
13.36	9653
13.37	9617
13.38	9688
13.39	9785
13.4	9722
13.41	9769
13.42	9813
13.43	9938
13.44	9908
13.45	10015
13.46	10084
13.47	10011
13.48	9955
13.49	10087
13.5	10295
13.51	10387
13.52	10376
13.53	10349
13.54	10491
13.55	10509
13.56	10365
13.57	10533
13.58	10594
13.59	10551
13.6	10646
13.61	10801
13.62	10763
13.63	10749
13.64	10850
13.65	10978
13.66	10983
13.67	11065
13.68	11168
13.69	11238
13.7	11190
13.71	11119
13.72	11234
13.73	11396
13.74	11400
13.75	11461
13.76	11527
13.77	11499
13.78	11488
13.79	11573
13.8	11622
13.81	11703
13.82	11735
13.83	11852
13.84	11888
13.85	11918
13.86	12059
13.87	12117
13.88	12042
13.89	12133
13.9	12207
13.91	12091
13.92	12099
13.93	12210
13.94	12268
13.95	12362
13.96	12279
13.97	12377
13.98	12476
13.99	12543
14.0	12615
14.01	12560
14.02	12621
14.03	12599
14.04	12664
14.05	12636
14.06	12617
14.07	12715
14.08	12774
14.09	12833
14.1	12842
14.11	12933
14.12	12969
14.13	12955
14.14	13089
14.15	13194
14.16	13214
14.17	13077
14.18	13050
14.19	13025
14.2	13192
14.21	13322
14.22	13353
14.23	13250
14.24	13218
14.25	13320
14.26	13421
14.27	13381
14.28	13488
14.29	13449
14.3	13413
14.31	13395
14.32	13477
14.33	13607
14.34	13640
14.35	13652
14.36	13625
14.37	13682
14.38	13725
14.39	13780
14.4	13789
14.41	13785
14.42	13878
14.43	13897
14.44	13824
14.45	13740
14.46	13768
14.47	13889
14.48	13934
14.49	13890
14.5	13936
14.51	13975
14.52	13934
14.53	13974
14.54	13886
14.55	13952
14.56	13891
14.57	13863
14.58	13896
14.59	13888
14.6	13938
14.61	13955
14.62	14029
14.63	13971
14.64	14002
14.65	13996
14.66	13971
14.67	13994
14.68	13953
14.69	13948
14.7	13977
14.71	13971
14.72	13970
14.73	14065
14.74	14088
14.75	14058
14.76	14036
14.77	14056
14.78	13981
14.79	14025
14.8	14091
14.81	14064
14.82	13953
14.83	13933
14.84	13957
14.85	13922
14.86	14024
14.87	13934
14.88	13868
14.89	13909
14.9	13946
14.91	13923
14.92	13961
14.93	14018
14.94	14060
14.95	14025
14.96	13994
14.97	14019
14.98	14007
14.99	14001
15.0	13843
15.01	13887
15.02	13979
15.03	13854
15.04	13787
15.05	13784
15.06	13765
15.07	13827
15.08	13866
15.09	13894
15.1	13922
15.11	13857
15.12	13845
15.13	13963
15.14	14005
15.15	13970
15.16	13966
15.17	13842
15.18	13748
15.19	13759
15.2	13666
15.21	13683
15.22	13741
15.23	13734
15.24	13770
15.25	13784
15.26	13813
15.27	13789
15.28	13750
15.29	13828
15.3	13853
15.31	13835
15.32	13787
15.33	13814
15.34	13907
15.35	13936
15.36	13865
15.37	13971
15.38	14065
15.39	14092
15.4	14065
15.41	14090
15.42	14245
15.43	14139
15.44	14077
15.45	14123
15.46	14065
15.47	13990
15.48	13894
15.49	13765
15.5	13653
15.51	13640
15.52	13724
15.53	13732
15.54	13614
15.55	13546
15.56	13559
15.57	13529
15.58	13420
15.59	13352
15.6	13305
15.61	13303
15.62	13290
15.63	13289
15.64	13277
15.65	13294
15.66	13216
15.67	13192
15.68	13182
15.69	13205
15.7	13098
15.71	13045
15.72	13094
15.73	13104
15.74	13050
15.75	13111
15.76	13146
15.77	13120
15.78	13051
15.79	13115
15.8	13164
15.81	13139
15.82	13062
15.83	13071
15.84	13100
15.85	13106
15.86	13010
15.87	12944
15.88	13063
15.89	13037
15.9	12879
15.91	12932
15.92	12975
15.93	13007
15.94	13096
15.95	13077
15.96	12989
15.97	12915
15.98	12891
15.99	12839
16.0	12828
16.01	12926
16.02	12880
16.03	12887
16.04	12968
16.05	12867
16.06	12754
16.07	12885
16.08	12921
16.09	12737
16.1	12664
16.11	12711
16.12	12742
16.13	12801
16.14	12780
16.15	12749
16.16	12853
16.17	12851
16.18	12787
16.19	12715
16.2	12648
16.21	12688
16.22	12735
16.23	12811
16.24	12925
16.25	12858
16.26	12697
16.27	12602
16.28	12629
16.29	12793
16.3	12805
16.31	12619
16.32	12575
16.33	12638
16.34	12689
16.35	12783
16.36	12855
16.37	12819
16.38	12637
16.39	12621
16.4	12763
16.41	12825
16.42	12768
16.43	12690
16.44	12734
16.45	12764
16.46	12770
16.47	12771
16.48	12703
16.49	12690
16.5	12749
16.51	12721
16.52	12642
16.53	12695
16.54	12797
16.55	12732
16.56	12627
16.57	12561
16.58	12569
16.59	12635
16.6	12640
16.61	12659
16.62	12749
16.63	12843
16.64	12756
16.65	12702
16.66	12709
16.67	12650
16.68	12730
16.69	12804
16.7	12744
16.71	12769
16.72	12851
16.73	12816
16.74	12758
16.75	12704
16.76	12705
16.77	12781
16.78	12772
16.79	12690
16.8	12686
16.81	12749
16.82	12748
16.83	12730
16.84	12746
16.85	12883
16.86	12902
16.87	12858
16.88	12843
16.89	12816
16.9	12791
16.91	12823
16.92	12804
16.93	12759
16.94	12804
16.95	12769
16.96	12814
16.97	12899
16.98	12929
16.99	12892
17.0	12849
17.01	12806
17.02	12772
17.03	12839
17.04	12822
17.05	12797
17.06	12834
17.07	12850
17.08	12870
17.09	12809
17.1	12827
17.11	12862
17.12	12849
17.13	12857
17.14	12884
17.15	12906
17.16	12820
17.17	12784
17.18	12887
17.19	13039
17.2	13081
17.21	12906
17.22	12787
17.23	12816
17.24	12882
17.25	12889
17.26	12921
17.27	12897
17.28	12856
17.29	12945
17.3	13021
17.31	12961
17.32	12908
17.33	12967
17.34	12988
17.35	12889
17.36	12864
17.37	12953
17.38	12997
17.39	12942
17.4	12928
17.41	12969
17.42	12906
17.43	12833
17.44	12839
17.45	12847
17.46	12923
17.47	13035
17.48	13045
17.49	13010
17.5	12991
17.51	12937
17.52	12878
17.53	12923
17.54	12953
17.55	12927
17.56	12938
17.57	12880
17.58	12846
17.59	12908
17.6	12993
17.61	13092
17.62	13145
17.63	13082
17.64	13044
17.65	13084
17.66	13076
17.67	13114
17.68	13154
17.69	13112
17.7	12975
17.71	12958
17.72	13026
17.73	13038
17.74	13058
17.75	13036
17.76	13047
17.77	13087
17.78	13031
17.79	12910
17.8	12933
17.81	13062
17.82	13125
17.83	13129
17.84	13118
17.85	13076
17.86	13065
17.87	13095
17.88	13129
17.89	13153
17.9	13116
17.91	13178
17.92	13286
17.93	13259
17.94	13177
17.95	13146
17.96	13134
17.97	13183
17.98	13245
17.99	13174
18.0	13130
18.01	13061
18.02	13120
18.03	13243
18.04	13250
18.05	13152
18.06	13116
18.07	13123
18.08	13125
18.09	13168
18.1	13130
18.11	13161
18.12	13237
18.13	13158
18.14	13200
18.15	13296
18.16	13300
18.17	13305
18.18	13314
18.19	13280
18.2	13182
18.21	13221
18.22	13231
18.23	13209
18.24	13268
18.25	13322
18.26	13295
18.27	13215
18.28	13185
18.29	13173
18.3	13088
18.31	13070
18.32	13250
18.33	13369
18.34	13292
18.35	13199
18.36	13204
18.37	13192
18.38	13279
18.39	13305
18.4	13121
18.41	13089
18.42	13241
18.43	13239
18.44	13161
18.45	13188
18.46	13254
18.47	13317
18.48	13253
18.49	13230
18.5	13328
18.51	13396
18.52	13309
18.53	13229
18.54	13235
18.55	13184
18.56	13223
18.57	13237
18.58	13283
18.59	13335
18.6	13319
18.61	13318
18.62	13316
18.63	13380
18.64	13349
18.65	13224
18.66	13334
18.67	13383
18.68	13262
18.69	13170
18.7	13163
18.71	13194
18.72	13242
18.73	13286
18.74	13261
18.75	13188
18.76	13239
18.77	13277
18.78	13244
18.79	13218
18.8	13160
18.81	13278
18.82	13315
18.83	13349
18.84	13356
18.85	13352
18.86	13277
18.87	13237
18.88	13391
18.89	13424
18.9	13337
18.91	13335
18.92	13362
18.93	13313
18.94	13268
18.95	13299
18.96	13337
18.97	13356
18.98	13390
18.99	13374
19.0	13383
19.01	13351
19.02	13308
19.03	13295
19.04	13308
19.05	13239
19.06	13345
19.07	13372
19.08	13256
19.09	13199
19.1	13223
19.11	13271
19.12	13332
19.13	13325
19.14	13359
19.15	13468
19.16	13467
19.17	13383
19.18	13392
19.19	13328
19.2	13273
19.21	13310
19.22	13264
19.23	13176
19.24	13130
19.25	13242
19.26	13269
19.27	13209
19.28	13202
19.29	13239
19.3	13211
19.31	13205
19.32	13278
19.33	13349
19.34	13318
19.35	13291
19.36	13293
19.37	13235
19.38	13234
19.39	13194
19.4	13215
19.41	13222
19.42	13240
19.43	13249
19.44	13298
19.45	13172
19.46	13014
19.47	13216
19.48	13245
19.49	13236
19.5	13279
19.51	13264
19.52	13271
19.53	13404
19.54	13357
19.55	13210
19.56	13214
19.57	13222
19.58	13212
19.59	13227
19.6	13185
19.61	13162
19.62	13168
19.63	13268
19.64	13182
19.65	13079
19.66	13149
19.67	13142
19.68	13104
19.69	13100
19.7	13179
19.71	13249
19.72	13126
19.73	13103
19.74	13230
19.75	13271
19.76	13203
19.77	13209
19.78	13229
19.79	13227
19.8	13237
19.81	13196
19.82	13072
19.83	13112
19.84	13125
19.85	13066
19.86	13199
19.87	13239
19.88	13201
19.89	13250
19.9	13359
19.91	13179
19.92	13117
19.93	13276
19.94	13301
19.95	13266
19.96	13252
19.97	13234
19.98	13199
19.99	13291
20.0	13229
20.01	13171
20.02	13100
20.03	13152
20.04	13245
20.05	13266
20.06	13152
20.07	13211
20.08	13181
20.09	13134
20.1	13153
20.11	13092
20.12	13101
20.13	13163
20.14	13160
20.15	13045
20.16	13062
20.17	13205
20.18	13252
20.19	13215
20.2	13179
20.21	13248
20.22	13213
20.23	13205
20.24	13243
20.25	13208
20.26	13263
20.27	13168
20.28	13080
20.29	13071
20.3	13174
20.31	13226
20.32	13269
20.33	13207
20.34	13162
20.35	13187
20.36	13222
20.37	13230
20.38	13156
20.39	13194
20.4	13238
20.41	13337
20.42	13354
20.43	13232
20.44	13182
20.45	13220
20.46	13251
20.47	13242
20.48	13169
20.49	13199
20.5	13296
20.51	13252
20.52	13300
20.53	13272
20.54	13332
20.55	13357
20.56	13269
20.57	13288
20.58	13297
20.59	13422
20.6	13405
20.61	13411
20.62	13412
20.63	13348
20.64	13423
20.65	13446
20.66	13368
20.67	13540
20.68	13567
20.69	13492
20.7	13433
20.71	13466
20.72	13496
20.73	13511
20.74	13472
20.75	13512
20.76	13554
20.77	13687
20.78	13508
20.79	13475
20.8	13528
20.81	13588
20.82	13602
20.83	13525
20.84	13526
20.85	13623
20.86	13684
20.87	13697
20.88	13559
20.89	13743
20.9	13723
20.91	13844
20.92	13761
20.93	13689
20.94	13875
20.95	13916
20.96	13790
20.97	13764
20.98	13805
20.99	13886
21.0	13830
21.01	13927
21.02	13858
21.03	13830
21.04	13888
21.05	13881
21.06	13839
21.07	13914
21.08	13937
21.09	13939
21.1	13814
21.11	13799
21.12	13895
21.13	14034
21.14	14009
21.15	13985
21.16	14025
21.17	14158
21.18	14167
21.19	14180
21.2	14193
21.21	14122
21.22	14129
21.23	14185
21.24	14261
21.25	14250
21.26	14193
21.27	14126
21.28	14250
21.29	14311
21.3	14331
21.31	14227
21.32	14151
21.33	14211
21.34	14242
21.35	14176
21.36	14127
21.37	14352
21.38	14284
21.39	14407
21.4	14382
21.41	14331
21.42	14409
21.43	14487
21.44	14404
21.45	14479
21.46	14506
21.47	14412
21.48	14392
21.49	14501
21.5	14495
21.51	14546
21.52	14511
21.53	14471
21.54	14401
21.55	14479
21.56	14450
21.57	14518
21.58	14594
21.59	14599
21.6	14677
21.61	14663
21.62	14655
21.63	14658
21.64	14585
21.65	14607
21.66	14687
21.67	14729
21.68	14574
21.69	14510
21.7	14607
21.71	14599
21.72	14443
21.73	14373
21.74	14486
21.75	14575
21.76	14745
21.77	14709
21.78	14770
21.79	14722
21.8	14658
21.81	14642
21.82	14702
21.83	14685
21.84	14720
21.85	14689
21.86	14654
21.87	14582
21.88	14526
21.89	14644
21.9	14589
21.91	14347
21.92	14344
21.93	14403
21.94	14429
21.95	14515
21.96	14622
21.97	14465
21.98	14313
21.99	14429
22.0	14452
22.01	14498
22.02	14664
22.03	14522
22.04	14442
22.05	14389
22.06	14338
22.07	14299
22.08	14338
22.09	14386
22.1	14312
22.11	14112
22.12	14115
22.13	14313
22.14	14270
22.15	14412
22.16	14305
22.17	14371
22.18	14298
22.19	14228
22.2	14009
22.21	14154
22.22	14251
22.23	14232
22.24	14131
22.25	13965
22.26	14155
22.27	14086
22.28	13961
22.29	14004
22.3	13973
22.31	13832
22.32	13868
22.33	13996
22.34	13880
22.35	13882
22.36	13874
22.37	13772
22.38	13677
22.39	13696
22.4	13785
22.41	13685
22.42	13729
22.43	13688
22.44	13670
22.45	13561
22.46	13517
22.47	13635
22.48	13526
22.49	13453
22.5	13499
22.51	13398
22.52	13406
22.53	13366
22.54	13360
22.55	13343
22.56	13354
22.57	13234
22.58	13163
22.59	13113
22.6	13206
22.61	13287
22.62	13124
22.63	13103
22.64	13071
22.65	13207
22.66	13196
22.67	12964
22.68	12935
22.69	13029
22.7	12860
22.71	12898
22.72	12846
22.73	12807
22.74	12834
22.75	12792
22.76	12696
22.77	12620
22.78	12516
22.79	12528
22.8	12588
22.81	12703
22.82	12573
22.83	12521
22.84	12512
22.85	12513
22.86	12383
22.87	12349
22.88	12268
22.89	12315
22.9	12420
22.91	12429
22.92	12247
22.93	12156
22.94	12118
22.95	12073
22.96	12167
22.97	11971
22.98	11994
22.99	11952
23.0	11948
23.01	11942
23.02	11931
23.03	11849
23.04	11887
23.05	12006
23.06	11756
23.07	11759
23.08	11486
23.09	11559
23.1	11713
23.11	11765
23.12	11637
23.13	11632
23.14	11614
23.15	11564
23.16	11475
23.17	11428
23.18	11392
23.19	11416
23.2	11411
23.21	11384
23.22	11465
23.23	11266
23.24	11278
23.25	11363
23.26	11165
23.27	11279
23.28	11312
23.29	11185
23.3	11095
23.31	11018
23.32	11067
23.33	10978
23.34	10862
23.35	10913
23.36	10992
23.37	10910
23.38	10936
23.39	11041
23.4	11054
23.41	11000
23.42	10961
23.43	10775
23.44	10790
23.45	10788
23.46	10815
23.47	10830
23.48	10703
23.49	10659
23.5	10637
23.51	10568
23.52	10522
23.53	10524
23.54	10495
23.55	10598
23.56	10543
23.57	10403
23.58	10478
23.59	10514
23.6	10418
23.61	10328
23.62	10386
23.63	10404
23.64	10470
23.65	10295
23.66	10303
23.67	10210
23.68	10238
23.69	10239
23.7	10332
23.71	10244
23.72	10238
23.73	10261
23.74	10187
23.75	10183
23.76	10079
23.77	10049
23.78	10056
23.79	10067
23.8	10110
23.81	10140
23.82	9981
23.83	9927
23.84	9894
23.85	9888
23.86	9831
23.87	9803
23.88	9861
23.89	9868
23.9	9809
23.91	9840
23.92	9776
23.93	9766
23.94	9780
23.95	9832
23.96	9769
23.97	9670
23.98	9596
23.99	9692
24.0	9721
24.01	9702
24.02	9635
24.03	9713
24.04	9666
24.05	9617
24.06	9635
24.07	9551
24.08	9531
24.09	9569
24.1	9591
24.11	9566
24.12	9521
24.13	9518
24.14	9476
24.15	9500
24.16	9553
24.17	9500
24.18	9456
24.19	9505
24.2	9488
24.21	9378
24.22	9445
24.23	9511
24.24	9411
24.25	9424
24.26	9425
24.27	9475
24.28	9497
24.29	9479
24.3	9458
24.31	9371
24.32	9398
24.33	9358
24.34	9373
24.35	9316
24.36	9388
24.37	9369
24.38	9382
24.39	9340
24.4	9331
24.41	9383
24.42	9310
24.43	9260
24.44	9153
24.45	9248
24.46	9303
24.47	9260
24.48	9246
24.49	9254
24.5	9275
24.51	9251
24.52	9247
24.53	9349
24.54	9306
24.55	9251
24.56	9235
24.57	9235
24.58	9274
24.59	9319
24.6	9297
24.61	9361
24.62	9431
24.63	9375
24.64	9393
24.65	9476
24.66	9487
24.67	9499
24.68	9518
24.69	9403
24.7	9404
24.71	9432
24.72	9486
24.73	9576
24.74	9604
24.75	9651
24.76	9715
24.77	9673
24.78	9667
24.79	9682
24.8	9808
24.81	9832
24.82	9778
24.83	9830
24.84	9897
24.85	9897
24.86	10041
24.87	10034
24.88	9996
24.89	10028
24.9	9885
24.91	9760
24.92	9663
24.93	9601
24.94	9560
24.95	9545
24.96	9543
24.97	9555
24.98	9416
24.99	9363
25.0	9251
25.01	9297
25.02	9334
25.03	9302
25.04	9346
25.05	9339
25.06	9286
25.07	9251
25.08	9267
25.09	9252
25.1	9233
25.11	9243
25.12	9283
25.13	9257
25.14	9149
25.15	9141
25.16	9263
25.17	9261
25.18	9257
25.19	9357
25.2	9344
25.21	9264
25.22	9291
25.23	9252
25.24	9266
25.25	9275
25.26	9209
25.27	9188
25.28	9284
25.29	9391
25.3	9434
25.31	9410
25.32	9334
25.33	9333
25.34	9234
25.35	9208
25.36	9274
25.37	9258
25.38	9294
25.39	9271
25.4	9213
25.41	9213
25.42	9293
25.43	9325
25.44	9284
25.45	9309
25.46	9311
25.47	9345
25.48	9343
25.49	9336
25.5	9449
25.51	9508
25.52	9471
25.53	9423
25.54	9398
25.55	9337
25.56	9349
25.57	9360
25.58	9369
25.59	9494
25.6	9487
25.61	9462
25.62	9462
25.63	9425
25.64	9398
25.65	9380
25.66	9392
25.67	9480
25.68	9573
25.69	9527
25.7	9510
25.71	9488
25.72	9440
25.73	9346
25.74	9337
25.75	9440
25.76	9420
25.77	9398
25.78	9467
25.79	9400
25.8	9447
25.81	9478
25.82	9469
25.83	9475
25.84	9495
25.85	9498
25.86	9439
25.87	9463
25.88	9497
25.89	9430
25.9	9384
25.91	9423
25.92	9433
25.93	9426
25.94	9440
25.95	9464
25.96	9456
25.97	9485
25.98	9480
25.99	9373
26.0	9391
26.01	9424
26.02	9495
26.03	9561
26.04	9473
26.05	9446
26.06	9462
26.07	9515
26.08	9495
26.09	9434
26.1	9359
26.11	9332
26.12	9382
26.13	9399
26.14	9384
26.15	9386
26.16	9452
26.17	9408
26.18	9282
26.19	9262
26.2	9248
26.21	9255
26.22	9405
26.23	9371
26.24	9261
26.25	9315
26.26	9337
26.27	9338
26.28	9230
26.29	9212
26.3	9303
26.31	9273
26.32	9150
26.33	9132
26.34	9147
26.35	9200
26.36	9234
26.37	9140
26.38	9096
26.39	9109
26.4	9135
26.41	9140
26.42	9141
26.43	9095
26.44	9021
26.45	8968
26.46	9045
26.47	9159
26.48	9110
26.49	9051
26.5	9079
26.51	9013
26.52	8948
26.53	8927
26.54	8958
26.55	8997
26.56	9006
26.57	9016
26.58	9024
26.59	8966
26.6	8917
26.61	8878
26.62	8820
26.63	8788
26.64	8712
26.65	8705
26.66	8712
26.67	8708
26.68	8731
26.69	8686
26.7	8654
26.71	8697
26.72	8734
26.73	8702
26.74	8623
26.75	8515
26.76	8478
26.77	8449
26.78	8438
26.79	8511
26.8	8503
26.81	8465
26.82	8446
26.83	8399
26.84	8388
26.85	8383
26.86	8373
26.87	8396
26.88	8416
26.89	8360
26.9	8320
26.91	8333
26.92	8311
26.93	8266
26.94	8241
26.95	8240
26.96	8197
26.97	8146
26.98	8172
26.99	8164
27.0	8108
27.01	8001
27.02	8009
27.03	8080
27.04	8025
27.05	7928
27.06	7911
27.07	7976
27.08	7965
27.09	7881
27.1	7844
27.11	7858
27.12	7850
27.13	7842
27.14	7823
27.15	7784
27.16	7775
27.17	7785
27.18	7835
27.19	7844
27.2	7710
27.21	7606
27.22	7625
27.23	7618
27.24	7548
27.25	7506
27.26	7514
27.27	7509
27.28	7463
27.29	7447
27.3	7471
27.31	7463
27.32	7453
27.33	7503
27.34	7536
27.35	7482
27.36	7414
27.37	7374
27.38	7368
27.39	7388
27.4	7358
27.41	7305
27.42	7300
27.43	7264
27.44	7200
27.45	7188
27.46	7211
27.47	7217
27.48	7167
27.49	7069
27.5	7058
27.51	7122
27.52	7109
27.53	7070
27.54	7018
27.55	7000
27.56	7014
27.57	6975
27.58	6910
27.59	6930
27.6	6975
27.61	7036
27.62	6989
27.63	6892
27.64	6917
27.65	6897
27.66	6807
27.67	6780
27.68	6784
27.69	6776
27.7	6780
27.71	6831
27.72	6829
27.73	6784
27.74	6742
27.75	6709
27.76	6696
27.77	6673
27.78	6669
27.79	6731
27.8	6772
27.81	6699
27.82	6618
27.83	6576
27.84	6601
27.85	6612
27.86	6561
27.87	6586
27.88	6546
27.89	6490
27.9	6490
27.91	6494
27.92	6469
27.93	6475
27.94	6533
27.95	6504
27.96	6478
27.97	6478
27.98	6433
27.99	6404
28.0	6346
28.01	6282
28.02	6286
28.03	6358
28.04	6401
28.05	6402
28.06	6374
28.07	6261
28.08	6217
28.09	6242
28.1	6245
28.11	6256
28.12	6219
28.13	6232
28.14	6239
28.15	6161
28.16	6210
28.17	6259
28.18	6221
28.19	6149
28.2	6128
28.21	6126
28.22	6139
28.23	6112
28.24	6086
28.25	6099
28.26	6072
28.27	6016
28.28	5985
28.29	5983
28.3	5978
28.31	5968
28.32	5971
28.33	5974
28.34	5966
28.35	6013
28.36	6003
28.37	5942
28.38	5882
28.39	5891
28.4	5878
28.41	5913
28.42	5892
28.43	5849
28.44	5859
28.45	5884
28.46	5833
28.47	5786
28.48	5767
28.49	5715
28.5	5716
28.51	5788
28.52	5811
28.53	5774
28.54	5688
28.55	5622
28.56	5674
28.57	5761
28.58	5767
28.59	5722
28.6	5670
28.61	5736
28.62	5715
28.63	5698
28.64	5724
28.65	5750
28.66	5709
28.67	5633
28.68	5606
28.69	5611
28.7	5602
28.71	5579
28.72	5590
28.73	5564
28.74	5557
28.75	5621
28.76	5612
28.77	5549
28.78	5538
28.79	5550
28.8	5600
28.81	5538
28.82	5447
28.83	5385
28.84	5455
28.85	5465
28.86	5412
28.87	5433
28.88	5481
28.89	5435
28.9	5430
28.91	5434
28.92	5416
28.93	5359
28.94	5309
28.95	5387
28.96	5396
28.97	5333
28.98	5356
28.99	5334
29.0	5237
29.01	5266
29.02	5293
29.03	5284
29.04	5256
29.05	5220
29.06	5239
29.07	5181
29.08	5108
29.09	5102
29.1	5176
29.11	5203
29.12	5156
29.13	5186
29.14	5178
29.15	5153
29.16	5133
29.17	5141
29.18	5137
29.19	5167
29.2	5095
29.21	5082
29.22	5139
29.23	5105
29.24	5117
29.25	5142
29.26	5108
29.27	5037
29.28	5042
29.29	5079
29.3	5067
29.31	5041
29.32	5099
29.33	5123
29.34	5085
29.35	5050
29.36	5005
29.37	4964
29.38	4998
29.39	5038
29.4	5013
29.41	5030
29.42	4993
29.43	4941
29.44	4890
29.45	4894
29.46	4901
29.47	4879
29.48	4851
29.49	4764
29.5	4760
29.51	4789
29.52	4885
29.53	4853
29.54	4765
29.55	4775
29.56	4782
29.57	4857
29.58	4884
29.59	4808
29.6	4690
29.61	4670
29.62	4624
29.63	4656
29.64	4711
29.65	4689
29.66	4647
29.67	4677
29.68	4695
29.69	4639
29.7	4622
29.71	4652
29.72	4685
29.73	4665
29.74	4552
29.75	4540
29.76	4603
29.77	4598
29.78	4599
29.79	4649
29.8	4593
29.81	4577
29.82	4615
29.83	4571
29.84	4569
29.85	4579
29.86	4592
29.87	4491
29.88	4559
29.89	4575
29.9	4522
29.91	4535
29.92	4518
29.93	4493
29.94	4476
29.95	4456
29.96	4431
29.97	4474
29.98	4503
29.99	4473
30.0	4454
30.01	4434
30.02	4426
30.03	4440
30.04	4413
30.05	4441
30.06	4399
30.07	4396
30.08	4400
30.09	4327
30.1	4353
30.11	4453
30.12	4434
30.13	4368
30.14	4332
30.15	4350
30.16	4360
30.17	4334
30.18	4314
30.19	4203
30.2	4232
30.21	4320
30.22	4316
30.23	4229
30.24	4206
30.25	4271
30.26	4345
30.27	4299
30.28	4264
30.29	4271
30.3	4347
30.31	4378
30.32	4314
30.33	4325
30.34	4273
30.35	4225
30.36	4201
30.37	4220
30.38	4179
30.39	4163
30.4	4191
30.41	4215
30.42	4234
30.43	4209
30.44	4140
30.45	4148
30.46	4228
30.47	4109
30.48	4116
30.49	4119
30.5	4140
30.51	4185
30.52	4125
30.53	4109
30.54	4196
30.55	4161
30.56	4150
30.57	4095
30.58	4086
30.59	4164
30.6	4101
30.61	4056
30.62	4087
30.63	4178
30.64	4270
30.65	4118
30.66	4055
30.67	4045
30.68	4092
30.69	4086
30.7	3982
30.71	4170
30.72	4187
30.73	4090
30.74	4044
30.75	4033
30.76	4053
30.77	4068
30.78	4059
30.79	4004
30.8	4007
30.81	4032
30.82	4084
30.83	4040
30.84	3931
30.85	3925
30.86	3954
30.87	4012
30.88	4051
30.89	4053
30.9	3945
30.91	3997
30.92	3967
30.93	3910
30.94	3923
30.95	4002
30.96	4010
30.97	3998
30.98	3982
30.99	3975
31.0	3908
31.01	3881
31.02	3876
31.03	3924
31.04	3861
31.05	3799
31.06	3811
31.07	3862
31.08	3881
31.09	3807
31.1	3748
31.11	3826
31.12	3851
31.13	3795
31.14	3801
31.15	3835
31.16	3807
31.17	3814
31.18	3772
31.19	3775
31.2	3808
31.21	3836
31.22	3754
31.23	3771
31.24	3816
31.25	3818
31.26	3824
31.27	3815
31.28	3761
31.29	3765
31.3	3727
31.31	3745
31.32	3726
31.33	3716
31.34	3755
31.35	3769
31.36	3717
31.37	3702
31.38	3714
31.39	3721
31.4	3724
31.41	3703
31.42	3688
31.43	3647
31.44	3634
31.45	3675
31.46	3585
31.47	3710
31.48	3663
31.49	3635
31.5	3727
31.51	3653
31.52	3676
31.53	3747
31.54	3753
31.55	3648
31.56	3729
31.57	3661
31.58	3623
31.59	3650
31.6	3674
31.61	3656
31.62	3550
31.63	3519
31.64	3561
31.65	3607
31.66	3613
31.67	3616
31.68	3651
31.69	3576
31.7	3611
31.71	3609
31.72	3652
31.73	3597
31.74	3591
31.75	3661
31.76	3629
31.77	3623
31.78	3615
31.79	3585
31.8	3625
31.81	3618
31.82	3518
31.83	3517
31.84	3555
31.85	3537
31.86	3594
31.87	3648
31.88	3562
31.89	3548
31.9	3568
31.91	3555
31.92	3578
31.93	3617
31.94	3524
31.95	3513
31.96	3441
31.97	3476
31.98	3469
31.99	3496
32.0	3468
32.01	3549
32.02	3495
32.03	3545
32.04	3471
32.05	3455
32.06	3471
32.07	3471
32.08	3510
32.09	3467
32.1	3413
32.11	3454
32.12	3439
32.13	3438
32.14	3429
32.15	3384
32.16	3392
32.17	3373
32.18	3346
32.19	3301
32.2	3347
32.21	3447
32.22	3418
32.23	3370
32.24	3405
32.25	3351
32.26	3329
32.27	3373
32.28	3401
32.29	3382
32.3	3394
32.31	3386
32.32	3419
32.33	3391
32.34	3356
32.35	3323
32.36	3355
32.37	3310
32.38	3328
32.39	3471
32.4	3424
32.41	3265
32.42	3362
32.43	3393
32.44	3376
32.45	3332
32.46	3338
32.47	3352
32.48	3254
32.49	3284
32.5	3337
32.51	3358
32.52	3335
32.53	3365
32.54	3347
32.55	3419
32.56	3350
32.57	3326
32.58	3350
32.59	3293
32.6	3325
32.61	3327
32.62	3337
32.63	3263
32.64	3297
32.65	3266
32.66	3322
32.67	3316
32.68	3301
32.69	3298
32.7	3251
32.71	3250
32.72	3262
32.73	3281
32.74	3270
32.75	3244
32.76	3296
32.77	3306
32.78	3235
32.79	3290
32.8	3274
32.81	3230
32.82	3233
32.83	3256
32.84	3170
32.85	3236
32.86	3288
32.87	3253
32.88	3231
32.89	3205
32.9	3236
32.91	3220
32.92	3221
32.93	3200
32.94	3180
32.95	3138
32.96	3135
32.97	3211
32.98	3251
32.99	3249
33.0	3243
33.01	3153
33.02	3200
33.03	3256
33.04	3197
33.05	3213
33.06	3155
33.07	3223
33.08	3241
33.09	3165
33.1	3181
33.11	3190
33.12	3186
33.13	3149
33.14	3170
33.15	3186
33.16	3172
33.17	3155
33.18	3188
33.19	3208
33.2	3210
33.21	3234
33.22	3169
33.23	3205
33.24	3214
33.25	3177
33.26	3174
33.27	3135
33.28	3192
33.29	3187
33.3	3150
33.31	3160
33.32	3118
33.33	3124
33.34	3140
33.35	3137
33.36	3125
33.37	3130
33.38	3167
33.39	3150
33.4	3146
33.41	3113
33.42	3063
33.43	3029
33.44	3034
33.45	3086
33.46	3097
33.47	3106
33.48	3067
33.49	3035
33.5	3073
33.51	3081
33.52	3149
33.53	3119
33.54	3053
33.55	3100
33.56	3087
33.57	3029
33.58	3026
33.59	3023
33.6	3045
33.61	3055
33.62	3078
33.63	3075
33.64	3104
33.65	3043
33.66	3023
33.67	3028
33.68	2998
33.69	3037
33.7	3049
33.71	3061
33.72	2996
33.73	2992
33.74	3028
33.75	3071
33.76	3038
33.77	2958
33.78	3001
33.79	3078
33.8	3051
33.81	3060
33.82	3063
33.83	3088
33.84	3062
33.85	3028
33.86	2969
33.87	3008
33.88	3029
33.89	3008
33.9	3004
33.91	2999
33.92	3041
33.93	3021
33.94	2989
33.95	2991
33.96	3045
33.97	3036
33.98	3004
33.99	2995
34.0	3014
34.01	2985
34.02	2953
34.03	2932
34.04	2965
34.05	2974
34.06	2953
34.07	2968
34.08	2989
34.09	2972
34.1	2996
34.11	2939
34.12	2903
34.13	2990
34.14	2995
34.15	2990
34.16	2955
34.17	2928
34.18	2961
34.19	3010
34.2	3019
34.21	2979
34.22	2983
34.23	2998
34.24	2967
34.25	2931
34.26	2933
34.27	2933
34.28	2885
34.29	2922
34.3	2951
34.31	2909
34.32	2860
34.33	2912
34.34	2957
34.35	2958
34.36	2936
34.37	2939
34.38	2949
34.39	2967
34.4	3005
34.41	2964
34.42	2911
34.43	2924
34.44	2936
34.45	2968
34.46	2963
34.47	2978
34.48	2936
34.49	2902
34.5	2932
34.51	2952
34.52	2922
34.53	2950
34.54	2934
34.55	2949
34.56	3004
34.57	2992
34.58	2920
34.59	2897
34.6	2895
34.61	2920
34.62	2927
34.63	2933
34.64	2945
34.65	2959
34.66	2947
34.67	2906
34.68	2958
34.69	2935
34.7	2884
34.71	2863
34.72	2904
34.73	2904
34.74	2895
34.75	2883
34.76	2880
34.77	2909
34.78	2898
34.79	2891
34.8	2902
34.81	2903
34.82	2888
34.83	2904
34.84	2903
34.85	2911
34.86	2924
34.87	2931
34.88	2934
34.89	2916
34.9	2936
34.91	2921
34.92	2906
34.93	2929
34.94	2965
34.95	2997
34.96	3023
34.97	3005
34.98	2999
34.99	2993
35.0	2951
35.01	2962
35.02	3007
35.03	2962
35.04	2977
35.05	3019
35.06	3036
35.07	2996
35.08	2978
35.09	3001
35.1	2950
35.11	2969
35.12	3005
35.13	2982
35.14	2975
35.15	2972
35.16	2966
35.17	2938
35.18	2958
35.19	3005
35.2	2986
35.21	2964
35.22	2993
35.23	2994
35.24	2976
35.25	2962
35.26	2998
35.27	2986
35.28	2920
35.29	2956
35.3	2974
35.31	2946
35.32	2955
35.33	3026
35.34	3069
35.35	3072
35.36	3078
35.37	3037
35.38	2949
35.39	2966
35.4	2995
35.41	2982
35.42	2995
35.43	3039
35.44	3095
35.45	3137
35.46	3145
35.47	3148
35.48	3174
35.49	3218
35.5	3227
35.51	3274
35.52	3351
35.53	3400
35.54	3409
35.55	3421
35.56	3533
35.57	3558
35.58	3576
35.59	3615
35.6	3581
35.61	3516
35.62	3530
35.63	3592
35.64	3577
35.65	3565
35.66	3528
35.67	3410
35.68	3386
35.69	3441
35.7	3426
35.71	3376
35.72	3308
35.73	3247
35.74	3241
35.75	3228
35.76	3213
35.77	3134
35.78	3067
35.79	3086
35.8	3125
35.81	3114
35.82	3084
35.83	3086
35.84	3078
35.85	3049
35.86	3025
35.87	3007
35.88	2996
35.89	2985
35.9	2988
35.91	3018
35.92	3020
35.93	2944
35.94	2935
35.95	3007
35.96	3040
35.97	3014
35.98	2989
35.99	2971
36.0	2919
36.01	2874
36.02	2902
36.03	2967
36.04	2975
36.05	2951
36.06	2952
36.07	2918
36.08	2880
36.09	2897
36.1	2925
36.11	2920
36.12	2909
36.13	2946
36.14	2982
36.15	2985
36.16	2996
36.17	2966
36.18	2928
36.19	2907
36.2	2876
36.21	2920
36.22	2926
36.23	2842
36.24	2796
36.25	2832
36.26	2886
36.27	2888
36.28	2914
36.29	2930
36.3	2920
36.31	2920
36.32	2896
36.33	2871
36.34	2889
36.35	2912
36.36	2907
36.37	2845
36.38	2812
36.39	2860
36.4	2920
36.41	2933
36.42	2886
36.43	2851
36.44	2821
36.45	2806
36.46	2826
36.47	2839
36.48	2811
36.49	2764
36.5	2774
36.51	2795
36.52	2793
36.53	2813
36.54	2853
36.55	2848
36.56	2821
36.57	2849
36.58	2848
36.59	2839
36.6	2846
36.61	2843
36.62	2834
36.63	2816
36.64	2823
36.65	2814
36.66	2825
36.67	2861
36.68	2836
36.69	2804
36.7	2824
36.71	2860
36.72	2871
36.73	2870
36.74	2879
36.75	2863
36.76	2858
36.77	2899
36.78	2917
36.79	2935
36.8	2987
36.81	3020
36.82	3034
36.83	3045
36.84	3054
36.85	3160
36.86	3258
36.87	3284
36.88	3307
36.89	3312
36.9	3376
36.91	3441
36.92	3432
36.93	3418
36.94	3414
36.95	3368
36.96	3315
36.97	3304
36.98	3301
36.99	3226
37.0	3162
37.01	3135
37.02	3072
37.03	3060
37.04	3060
37.05	3023
37.06	2972
37.07	2933
37.08	2883
37.09	2851
37.1	2814
37.11	2766
37.12	2775
37.13	2761
37.14	2724
37.15	2734
37.16	2730
37.17	2686
37.18	2636
37.19	2664
37.2	2714
37.21	2728
37.22	2719
37.23	2707
37.24	2726
37.25	2730
37.26	2675
37.27	2677
37.28	2705
37.29	2685
37.3	2674
37.31	2667
37.32	2706
37.33	2690
37.34	2676
37.35	2691
37.36	2709
37.37	2721
37.38	2714
37.39	2710
37.4	2720
37.41	2747
37.42	2713
37.43	2690
37.44	2694
37.45	2741
37.46	2742
37.47	2719
37.48	2788
37.49	2839
37.5	2850
37.51	2921
37.52	2938
37.53	3004
37.54	3060
37.55	3093
37.56	3115
37.57	3080
37.58	3086
37.59	3121
37.6	3130
37.61	3134
37.62	3111
37.63	3000
37.64	2876
37.65	2871
37.66	2929
37.67	2892
37.68	2867
37.69	2847
37.7	2805
37.71	2751
37.72	2721
37.73	2755
37.74	2740
37.75	2673
37.76	2623
37.77	2584
37.78	2596
37.79	2603
37.8	2569
37.81	2579
37.82	2601
37.83	2571
37.84	2555
37.85	2600
37.86	2590
37.87	2555
37.88	2515
37.89	2533
37.9	2562
37.91	2548
37.92	2492
37.93	2523
37.94	2563
37.95	2555
37.96	2551
37.97	2557
37.98	2514
37.99	2454
38.0	2494
38.01	2548
38.02	2530
38.03	2526
38.04	2511
38.05	2532
38.06	2556
38.07	2539
38.08	2508
38.09	2507
38.1	2524
38.11	2506
38.12	2492
38.13	2497
38.14	2465
38.15	2489
38.16	2520
38.17	2518
38.18	2515
38.19	2516
38.2	2525
38.21	2549
38.22	2498
38.23	2450
38.24	2462
38.25	2503
38.26	2482
38.27	2491
38.28	2502
38.29	2515
38.3	2483
38.31	2461
38.32	2497
38.33	2527
38.34	2531
38.35	2540
38.36	2535
38.37	2482
38.38	2473
38.39	2510
38.4	2490
38.41	2416
38.42	2408
38.43	2466
38.44	2507
38.45	2507
38.46	2473
38.47	2445
38.48	2449
38.49	2446
38.5	2474
38.51	2470
38.52	2455
38.53	2451
38.54	2423
38.55	2458
38.56	2460
38.57	2446
38.58	2398
38.59	2395
38.6	2471
38.61	2503
38.62	2486
38.63	2429
38.64	2428
38.65	2439
38.66	2436
38.67	2444
38.68	2465
38.69	2496
38.7	2463
38.71	2442
38.72	2421
38.73	2420
38.74	2441
38.75	2457
38.76	2460
38.77	2482
38.78	2457
38.79	2434
38.8	2467
38.81	2493
38.82	2457
38.83	2451
38.84	2417
38.85	2411
38.86	2448
38.87	2462
38.88	2457
38.89	2496
38.9	2521
38.91	2531
38.92	2494
38.93	2475
38.94	2545
38.95	2570
38.96	2602
38.97	2625
38.98	2582
38.99	2576
39.0	2516
39.01	2600
39.02	2660
39.03	2649
39.04	2655
39.05	2683
39.06	2742
39.07	2735
39.08	2728
39.09	2739
39.1	2770
39.11	2807
39.12	2762
39.13	2814
39.14	2914
39.15	2997
39.16	3027
39.17	3113
39.18	3213
39.19	3277
39.2	3406
39.21	3489
39.22	3569
39.23	3744
39.24	3869
39.25	4022
39.26	4129
39.27	4278
39.28	4493
39.29	4697
39.3	4884
39.31	5001
39.32	5079
39.33	5147
39.34	5087
39.35	5025
39.36	4915
39.37	4800
39.38	4661
39.39	4462
39.4	4399
39.41	4307
39.42	4165
39.43	4109
39.44	3959
39.45	3812
39.46	3718
39.47	3562
39.48	3371
39.49	3201
39.5	3110
39.51	3091
39.52	3010
39.53	2897
39.54	2797
39.55	2734
39.56	2713
39.57	2677
39.58	2612
39.59	2615
39.6	2599
39.61	2601
39.62	2630
39.63	2553
39.64	2526
39.65	2523
39.66	2531
39.67	2525
39.68	2495
39.69	2468
39.7	2419
39.71	2438
39.72	2490
39.73	2504
39.74	2437
39.75	2408
39.76	2432
39.77	2412
39.78	2438
39.79	2408
39.8	2430
39.81	2409
39.82	2437
39.83	2457
39.84	2504
39.85	2478
39.86	2443
39.87	2414
39.88	2397
39.89	2411
39.9	2400
39.91	2393
39.92	2411
39.93	2415
39.94	2378
39.95	2373
39.96	2373
39.97	2402
39.98	2423
39.99	2381
40.0	2356
40.01	2363
40.02	2349
40.03	2324
40.04	2356
40.05	2424
40.06	2400
40.07	2400
40.08	2371
40.09	2344
40.1	2317
40.11	2299
40.12	2328
40.13	2348
40.14	2344
40.15	2337
40.16	2397
40.17	2428
40.18	2396
40.19	2399
40.2	2401
40.21	2387
40.22	2423
40.23	2426
40.24	2434
40.25	2433
40.26	2333
40.27	2340
40.28	2326
40.29	2332
40.3	2391
40.31	2376
40.32	2366
40.33	2344
40.34	2335
40.35	2364
40.36	2397
40.37	2398
40.38	2353
40.39	2372
40.4	2427
40.41	2457
40.42	2462
40.43	2411
40.44	2416
40.45	2439
40.46	2429
40.47	2431
40.48	2374
40.49	2331
40.5	2379
40.51	2431
40.52	2412
40.53	2419
40.54	2403
40.55	2444
40.56	2434
40.57	2434
40.58	2452
40.59	2442
40.6	2418
40.61	2398
40.62	2428
40.63	2454
40.64	2462
40.65	2403
40.66	2431
40.67	2452
40.68	2565
40.69	2544
40.7	2567
40.71	2548
40.72	2566
40.73	2564
40.74	2586
40.75	2630
40.76	2671
40.77	2693
40.78	2762
40.79	2781
40.8	2736
40.81	2707
40.82	2748
40.83	2853
40.84	2847
40.85	2778
40.86	2750
40.87	2756
40.88	2714
40.89	2694
40.9	2713
40.91	2736
40.92	2740
40.93	2713
40.94	2662
40.95	2626
40.96	2620
40.97	2593
40.98	2634
40.99	2643
41.0	2561
41.01	2484
41.02	2515
41.03	2536
41.04	2479
41.05	2432
41.06	2382
41.07	2447
41.08	2447
41.09	2430
41.1	2437
41.11	2340
41.12	2301
41.13	2417
41.14	2457
41.15	2332
41.16	2345
41.17	2406
41.18	2394
41.19	2405
41.2	2412
41.21	2335
41.22	2347
41.23	2356
41.24	2338
41.25	2347
41.26	2432
41.27	2477
41.28	2418
41.29	2346
41.3	2311
41.31	2319
41.32	2336
41.33	2349
41.34	2356
41.35	2318
41.36	2351
41.37	2358
41.38	2313
41.39	2337
41.4	2345
41.41	2305
41.42	2335
41.43	2368
41.44	2361
41.45	2340
41.46	2327
41.47	2335
41.48	2371
41.49	2366
41.5	2385
41.51	2310
41.52	2292
41.53	2273
41.54	2204
41.55	2217
41.56	2270
41.57	2292
41.58	2340
41.59	2347
41.6	2336
41.61	2359
41.62	2349
41.63	2300
41.64	2315
41.65	2345
41.66	2299
41.67	2256
41.68	2299
41.69	2272
41.7	2360
41.71	2363
41.72	2369
41.73	2428
41.74	2399
41.75	2272
41.76	2286
41.77	2334
41.78	2372
41.79	2338
41.8	2358
41.81	2339
41.82	2296
41.83	2289
41.84	2343
41.85	2297
41.86	2326
41.87	2316
41.88	2307
41.89	2333
41.9	2234
41.91	2329
41.92	2368
41.93	2353
41.94	2316
41.95	2292
41.96	2238
41.97	2262
41.98	2317
41.99	2325
42.0	2363
42.01	2266
42.02	2234
42.03	2284
42.04	2341
42.05	2307
42.06	2304
42.07	2306
42.08	2305
42.09	2289
42.1	2293
42.11	2275
42.12	2256
42.13	2286
42.14	2322
42.15	2303
42.16	2292
42.17	2268
42.18	2287
42.19	2267
42.2	2330
42.21	2356
42.22	2358
42.23	2388
42.24	2389
42.25	2319
42.26	2270
42.27	2309
42.28	2297
42.29	2301
42.3	2329
42.31	2321
42.32	2343
42.33	2314
42.34	2307
42.35	2411
42.36	2397
42.37	2322
42.38	2352
42.39	2336
42.4	2398
42.41	2429
42.42	2409
42.43	2448
42.44	2395
42.45	2447
42.46	2433
42.47	2392
42.48	2444
42.49	2433
42.5	2488
42.51	2514
42.52	2524
42.53	2470
42.54	2422
42.55	2409
42.56	2420
42.57	2426
42.58	2429
42.59	2445
42.6	2377
42.61	2345
42.62	2393
42.63	2360
42.64	2344
42.65	2420
42.66	2390
42.67	2397
42.68	2365
42.69	2326
42.7	2310
42.71	2271
42.72	2332
42.73	2324
42.74	2280
42.75	2257
42.76	2226
42.77	2190
42.78	2316
42.79	2273
42.8	2264
42.81	2233
42.82	2182
42.83	2186
42.84	2255
42.85	2263
42.86	2277
42.87	2283
42.88	2265
42.89	2282
42.9	2246
42.91	2157
42.92	2197
42.93	2243
42.94	2227
42.95	2171
42.96	2155
42.97	2213
42.98	2255
42.99	2246
43.0	2196
43.01	2189
43.02	2239
43.03	2245
43.04	2262
43.05	2200
43.06	2162
43.07	2217
43.08	2245
43.09	2172
43.1	2190
43.11	2222
43.12	2174
43.13	2261
43.14	2293
43.15	2204
43.16	2244
43.17	2280
43.18	2218
43.19	2239
43.2	2177
43.21	2183
43.22	2115
43.23	2128
43.24	2198
43.25	2142
43.26	2177
43.27	2156
43.28	2214
43.29	2259
43.3	2212
43.31	2215
43.32	2176
43.33	2176
43.34	2203
43.35	2204
43.36	2181
43.37	2215
43.38	2166
43.39	2170
43.4	2133
43.41	2154
43.42	2153
43.43	2156
43.44	2193
43.45	2179
43.46	2151
43.47	2165
43.48	2152
43.49	2132
43.5	2133
43.51	2136
43.52	2137
43.53	2154
43.54	2167
43.55	2159
43.56	2123
43.57	2094
43.58	2155
43.59	2162
43.6	2164
43.61	2163
43.62	2182
43.63	2147
43.64	2131
43.65	2216
43.66	2193
43.67	2207
43.68	2263
43.69	2266
43.7	2209
43.71	2190
43.72	2150
43.73	2107
43.74	2160
43.75	2143
43.76	2101
43.77	2138
43.78	2174
43.79	2116
43.8	2094
43.81	2135
43.82	2118
43.83	2156
43.84	2114
43.85	2123
43.86	2175
43.87	2179
43.88	2229
43.89	2189
43.9	2178
43.91	2123
43.92	2107
43.93	2126
43.94	2119
43.95	2138
43.96	2127
43.97	2125
43.98	2133
43.99	2117
44.0	2143
44.01	2162
44.02	2134
44.03	2092
44.04	2116
44.05	2190
44.06	2174
44.07	2118
44.08	2167
44.09	2213
44.1	2195
44.11	2132
44.12	2069
44.13	2067
44.14	2097
44.15	2112
44.16	2119
44.17	2143
44.18	2180
44.19	2163
44.2	2126
44.21	2091
44.22	2154
44.23	2117
44.24	2145
44.25	2128
44.26	2153
44.27	2157
44.28	2217
44.29	2187
44.3	2103
44.31	2084
44.32	2095
44.33	2111
44.34	2121
44.35	2114
44.36	2148
44.37	2177
44.38	2164
44.39	2163
44.4	2100
44.41	2119
44.42	2179
44.43	2163
44.44	2112
44.45	2077
44.46	2107
44.47	2153
44.48	2116
44.49	2145
44.5	2198
44.51	2172
44.52	2148
44.53	2164
44.54	2136
44.55	2143
44.56	2124
44.57	2104
44.58	2123
44.59	2160
44.6	2191
44.61	2191
44.62	2149
44.63	2171
44.64	2171
44.65	2160
44.66	2123
44.67	2158
44.68	2142
44.69	2166
44.7	2163
44.71	2221
44.72	2210
44.73	2213
44.74	2153
44.75	2221
44.76	2276
44.77	2248
44.78	2267
44.79	2239
44.8	2212
44.81	2252
44.82	2298
44.83	2354
44.84	2341
44.85	2280
44.86	2290
44.87	2340
44.88	2376
44.89	2389
44.9	2353
44.91	2386
44.92	2437
44.93	2515
44.94	2516
44.95	2560
44.96	2561
44.97	2599
44.98	2710
44.99	2783
45.0	2862
45.01	2961
45.02	3121
45.03	3235
45.04	3411
45.05	3629
45.06	3870
45.07	4184
45.08	4489
45.09	4873
45.1	5222
45.11	5498
45.12	5764
45.13	5995
45.14	6122
45.15	6194
45.16	6089
45.17	5924
45.18	5733
45.19	5518
45.2	5273
45.21	5068
45.22	4977
45.23	4884
45.24	4763
45.25	4672
45.26	4603
45.27	4551
45.28	4332
45.29	4066
45.3	3870
45.31	3705
45.32	3519
45.33	3300
45.34	3111
45.35	2944
45.36	2870
45.37	2775
45.38	2650
45.39	2591
45.4	2580
45.41	2503
45.42	2433
45.43	2428
45.44	2403
45.45	2350
45.46	2307
45.47	2319
45.48	2322
45.49	2321
45.5	2274
45.51	2248
45.52	2244
45.53	2262
45.54	2238
45.55	2232
45.56	2197
45.57	2159
45.58	2186
45.59	2213
45.6	2227
45.61	2193
45.62	2179
45.63	2148
45.64	2115
45.65	2091
45.66	2144
45.67	2204
45.68	2146
45.69	2130
45.7	2126
45.71	2103
45.72	2048
45.73	2041
45.74	2058
45.75	2081
45.76	2097
45.77	2118
45.78	2103
45.79	2090
45.8	2079
45.81	2041
45.82	2037
45.83	2070
45.84	2131
45.85	2115
45.86	2097
45.87	2104
45.88	2111
45.89	2113
45.9	2079
45.91	2043
45.92	2011
45.93	2043
45.94	2057
45.95	2042
45.96	2012
45.97	2047
45.98	2087
45.99	2017
46.0	2026
46.01	2072
46.02	2037
46.03	2020
46.04	2065
46.05	2060
46.06	2066
46.07	2058
46.08	2091
46.09	2102
46.1	2024
46.11	2013
46.12	2022
46.13	2026
46.14	2057
46.15	2043
46.16	2080
46.17	2095
46.18	2017
46.19	2034
46.2	2052
46.21	2050
46.22	2059
46.23	2028
46.24	2050
46.25	2042
46.26	2032
46.27	2041
46.28	2058
46.29	2075
46.3	2058
46.31	2018
46.32	1999
46.33	2009
46.34	2034
46.35	2034
46.36	2015
46.37	2005
46.38	1999
46.39	1994
46.4	1960
46.41	1978
46.42	2022
46.43	2057
46.44	2075
46.45	2068
46.46	2043
46.47	2007
46.48	2003
46.49	2031
46.5	2059
46.51	2078
46.52	2061
46.53	2077
46.54	2064
46.55	2046
46.56	2043
46.57	2073
46.58	2022
46.59	1995
46.6	2017
46.61	2006
46.62	2091
46.63	2140
46.64	2069
46.65	2041
46.66	2058
46.67	2053
46.68	2101
46.69	2094
46.7	2076
46.71	2111
46.72	2103
46.73	2079
46.74	2090
46.75	2107
46.76	2062
46.77	2005
46.78	2025
46.79	2083
46.8	2041
46.81	2072
46.82	2024
46.83	2003
46.84	2039
46.85	2032
46.86	2032
46.87	2047
46.88	2045
46.89	2019
46.9	2031
46.91	2061
46.92	2030
46.93	2000
46.94	2004
46.95	1999
46.96	2041
46.97	2007
46.98	1988
46.99	2024
47.0	2041
47.01	2012
47.02	2018
47.03	2042
47.04	2042
47.05	1992
47.06	1961
47.07	1985
47.08	2021
47.09	2037
47.1	2031
47.11	2027
47.12	2055
47.13	2028
47.14	2002
47.15	1994
47.16	1992
47.17	2013
47.18	2044
47.19	2016
47.2	2023
47.21	2059
47.22	2022
47.23	1997
47.24	2028
47.25	2074
47.26	2030
47.27	2028
47.28	2052
47.29	2042
47.3	2054
47.31	2084
47.32	2065
47.33	2032
47.34	2040
47.35	2046
47.36	2042
47.37	2103
47.38	2152
47.39	2171
47.4	2138
47.41	2146
47.42	2184
47.43	2214
47.44	2196
47.45	2160
47.46	2146
47.47	2141
47.48	2173
47.49	2186
47.5	2151
47.51	2110
47.52	2114
47.53	2117
47.54	2112
47.55	2114
47.56	2132
47.57	2141
47.58	2093
47.59	2095
47.6	2110
47.61	2092
47.62	2094
47.63	2115
47.64	2107
47.65	2075
47.66	2026
47.67	2044
47.68	2043
47.69	2025
47.7	2035
47.71	2017
47.72	2027
47.73	2025
47.74	1991
47.75	2001
47.76	2013
47.77	2031
47.78	2021
47.79	1987
47.8	1987
47.81	1991
47.82	1998
47.83	2037
47.84	2044
47.85	1988
47.86	2026
47.87	2039
47.88	2024
47.89	2008
47.9	2013
47.91	2005
47.92	1974
47.93	1966
47.94	1987
47.95	2019
47.96	2009
47.97	1953
47.98	1962
47.99	1985
48.0	1968
48.01	1974
48.02	1979
48.03	2007
48.04	2063
48.05	2016
48.06	2027
48.07	2021
48.08	2009
48.09	1998
48.1	2001
48.11	1986
48.12	1952
48.13	1972
48.14	2016
48.15	2032
48.16	1990
48.17	1955
48.18	1946
48.19	1961
48.2	1985
48.21	1981
48.22	2002
48.23	2040
48.24	2028
48.25	1983
48.26	1983
48.27	1992
48.28	1966
48.29	1986
48.3	1990
48.31	1969
48.32	1986
48.33	2037
48.34	2037
48.35	2006
48.36	1987
48.37	1949
48.38	1936
48.39	1965
48.4	1970
48.41	1982
48.42	2032
48.43	2026
48.44	1984
48.45	1990
48.46	1969
48.47	1958
48.48	1983
48.49	1999
48.5	1981
48.51	1925
48.52	1941
48.53	1984
48.54	2004
48.55	2008
48.56	2005
48.57	1997
48.58	1977
48.59	1939
48.6	1921
48.61	1933
48.62	1949
48.63	1963
48.64	2001
48.65	2020
48.66	1999
48.67	1964
48.68	1929
48.69	1959
48.7	1958
48.71	1979
48.72	2002
48.73	1965
48.74	1936
48.75	1933
48.76	1951
48.77	1958
48.78	1929
48.79	1927
48.8	1941
48.81	1996
48.82	2030
48.83	2015
48.84	1983
48.85	1948
48.86	1964
48.87	1974
48.88	1960
48.89	1999
48.9	1992
48.91	1958
48.92	1977
48.93	1981
48.94	1964
48.95	1941
48.96	1938
48.97	1970
48.98	1987
48.99	1933
49.0	1886
49.01	1923
49.02	1939
49.03	1931
49.04	1940
49.05	1953
49.06	1954
49.07	1964
49.08	1947
49.09	1941
49.1	1962
49.11	1952
49.12	1900
49.13	1939
49.14	1977
49.15	1959
49.16	1966
49.17	1957
49.18	1940
49.19	1943
49.2	1947
49.21	1965
49.22	1952
49.23	1916
49.24	1889
49.25	1909
49.26	1952
49.27	1951
49.28	1950
49.29	1946
49.3	1927
49.31	1926
49.32	1936
49.33	1930
49.34	1944
49.35	1957
49.36	1951
49.37	1946
49.38	1910
49.39	1909
49.4	1901
49.41	1896
49.42	1944
49.43	1951
49.44	1934
49.45	1936
49.46	1926
49.47	1899
49.48	1918
49.49	1984
49.5	1988
49.51	1951
49.52	1954
49.53	1951
49.54	1929
49.55	1958
49.56	1958
49.57	1936
49.58	1923
49.59	1915
49.6	1937
49.61	1930
49.62	1918
49.63	1903
49.64	1895
49.65	1917
49.66	1933
49.67	1953
49.68	1950
49.69	1918
49.7	1929
49.71	1914
49.72	1870
49.73	1861
49.74	1902
49.75	1938
49.76	1928
49.77	1902
49.78	1905
49.79	1918
49.8	1877
49.81	1883
49.82	1908
49.83	1860
49.84	1848
49.85	1893
49.86	1895
49.87	1880
49.88	1895
49.89	1889
49.9	1892
49.91	1920
49.92	1925
49.93	1900
49.94	1855
49.95	1840
49.96	1869
49.97	1899
49.98	1919
49.99	1898
50.0	1877
50.01	1901
50.02	1908
50.03	1880
50.04	1904
50.05	1933
50.06	1906
50.07	1907
50.08	1903
50.09	1871
50.1	1872
50.11	1876
50.12	1844
50.13	1846
50.14	1873
50.15	1858
50.16	1887
50.17	1908
50.18	1875
50.19	1840
50.2	1875
50.21	1863
50.22	1848
50.23	1858
50.24	1843
50.25	1834
50.26	1857
50.27	1893
50.28	1869
50.29	1865
50.3	1888
50.31	1884
50.32	1875
50.33	1889
50.34	1900
50.35	1864
50.36	1854
50.37	1889
50.38	1882
50.39	1854
50.4	1858
50.41	1899
50.42	1924
50.43	1895
50.44	1866
50.45	1882
50.46	1906
50.47	1881
50.48	1803
50.49	1753
50.5	1801
50.51	1858
50.52	1845
50.53	1840
50.54	1853
50.55	1850
50.56	1846
50.57	1887
50.58	1892
50.59	1850
50.6	1854
50.61	1852
50.62	1851
50.63	1863
50.64	1859
50.65	1855
50.66	1892
50.67	1888
50.68	1830
50.69	1852
50.7	1892
50.71	1899
50.72	1890
50.73	1857
50.74	1824
50.75	1818
50.76	1841
50.77	1859
50.78	1877
50.79	1876
50.8	1853
50.81	1848
50.82	1847
50.83	1839
50.84	1831
50.85	1861
50.86	1894
50.87	1850
50.88	1819
50.89	1816
50.9	1804
50.91	1824
50.92	1849
50.93	1872
50.94	1880
50.95	1852
50.96	1828
50.97	1841
50.98	1856
50.99	1852
51.0	1826
51.01	1816
51.02	1823
51.03	1832
51.04	1837
51.05	1806
51.06	1791
51.07	1805
51.08	1800
51.09	1817
51.1	1861
51.11	1854
51.12	1824
51.13	1813
51.14	1804
51.15	1786
51.16	1786
51.17	1800
51.18	1780
51.19	1783
51.2	1806
51.21	1814
51.22	1816
51.23	1824
51.24	1833
51.25	1828
51.26	1815
51.27	1785
51.28	1795
51.29	1820
51.3	1798
51.31	1802
51.32	1849
51.33	1870
51.34	1841
51.35	1797
51.36	1807
51.37	1818
51.38	1817
51.39	1816
51.4	1815
51.41	1819
51.42	1826
51.43	1827
51.44	1832
51.45	1860
51.46	1851
51.47	1813
51.48	1810
51.49	1841
51.5	1841
51.51	1836
51.52	1846
51.53	1818
51.54	1813
51.55	1883
51.56	1896
51.57	1837
51.58	1804
51.59	1813
51.6	1817
51.61	1803
51.62	1817
51.63	1852
51.64	1872
51.65	1881
51.66	1874
51.67	1857
51.68	1857
51.69	1848
51.7	1885
51.71	1954
51.72	1930
51.73	1892
51.74	1881
51.75	1862
51.76	1840
51.77	1821
51.78	1798
51.79	1785
51.8	1824
51.81	1845
51.82	1824
51.83	1845
51.84	1844
51.85	1814
51.86	1817
51.87	1814
51.88	1804
51.89	1796
51.9	1784
51.91	1806
51.92	1805
51.93	1789
51.94	1781
51.95	1813
51.96	1850
51.97	1841
51.98	1808
51.99	1762
52.0	1746
52.01	1774
52.02	1802
52.03	1820
52.04	1846
52.05	1839
52.06	1813
52.07	1807
52.08	1794
52.09	1800
52.1	1813
52.11	1799
52.12	1770
52.13	1785
52.14	1819
52.15	1820
52.16	1817
52.17	1824
52.18	1812
52.19	1782
52.2	1794
52.21	1825
52.22	1828
52.23	1821
52.24	1828
52.25	1831
52.26	1810
52.27	1802
52.28	1831
52.29	1865
52.3	1874
52.31	1864
52.32	1822
52.33	1799
52.34	1796
52.35	1817
52.36	1837
52.37	1800
52.38	1790
52.39	1786
52.4	1773
52.41	1807
52.42	1827
52.43	1799
52.44	1773
52.45	1787
52.46	1773
52.47	1757
52.48	1783
52.49	1800
52.5	1806
52.51	1838
52.52	1817
52.53	1788
52.54	1782
52.55	1769
52.56	1795
52.57	1799
52.58	1780
52.59	1808
52.6	1839
52.61	1821
52.62	1801
52.63	1781
52.64	1765
52.65	1750
52.66	1753
52.67	1778
52.68	1808
52.69	1825
52.7	1789
52.71	1792
52.72	1836
52.73	1835
52.74	1798
52.75	1787
52.76	1774
52.77	1749
52.78	1783
52.79	1811
52.8	1786
52.81	1777
52.82	1796
52.83	1796
52.84	1781
52.85	1774
52.86	1739
52.87	1709
52.88	1735
52.89	1771
52.9	1768
52.91	1746
52.92	1777
52.93	1801
52.94	1779
52.95	1773
52.96	1801
52.97	1816
52.98	1804
52.99	1779
53.0	1791
53.01	1793
53.02	1823
53.03	1824
53.04	1788
53.05	1784
53.06	1790
53.07	1767
53.08	1751
53.09	1755
53.1	1759
53.11	1794
53.12	1788
53.13	1740
53.14	1734
53.15	1770
53.16	1763
53.17	1757
53.18	1794
53.19	1786
53.2	1773
53.21	1785
53.22	1804
53.23	1772
53.24	1751
53.25	1762
53.26	1785
53.27	1810
53.28	1814
53.29	1789
53.3	1759
53.31	1767
53.32	1809
53.33	1823
53.34	1803
53.35	1771
53.36	1776
53.37	1775
53.38	1782
53.39	1795
53.4	1793
53.41	1758
53.42	1759
53.43	1782
53.44	1766
53.45	1739
53.46	1733
53.47	1762
53.48	1764
53.49	1747
53.5	1752
53.51	1785
53.52	1784
53.53	1761
53.54	1770
53.55	1800
53.56	1842
53.57	1832
53.58	1763
53.59	1768
53.6	1777
53.61	1787
53.62	1766
53.63	1748
53.64	1748
53.65	1750
53.66	1739
53.67	1746
53.68	1797
53.69	1794
53.7	1740
53.71	1742
53.72	1794
53.73	1812
53.74	1780
53.75	1799
53.76	1806
53.77	1789
53.78	1818
53.79	1838
53.8	1782
53.81	1764
53.82	1765
53.83	1787
53.84	1784
53.85	1795
53.86	1811
53.87	1810
53.88	1830
53.89	1847
53.9	1848
53.91	1845
53.92	1834
53.93	1820
53.94	1830
53.95	1872
53.96	1854
53.97	1826
53.98	1879
53.99	1906
54.0	1914
54.01	1898
54.02	1907
54.03	1946
54.04	1955
54.05	1969
54.06	1966
54.07	1980
54.08	1984
54.09	2017
54.1	2008
54.11	1984
54.12	1982
54.13	1957
54.14	1967
54.15	2000
54.16	1992
54.17	1942
54.18	1896
54.19	1938
54.2	1949
54.21	1893
54.22	1863
54.23	1905
54.24	1954
54.25	1935
54.26	1902
54.27	1849
54.28	1846
54.29	1834
54.3	1788
54.31	1805
54.32	1824
54.33	1813
54.34	1810
54.35	1798
54.36	1770
54.37	1746
54.38	1758
54.39	1753
54.4	1738
54.41	1787
54.42	1783
54.43	1756
54.44	1764
54.45	1810
54.46	1794
54.47	1789
54.48	1800
54.49	1793
54.5	1814
54.51	1805
54.52	1761
54.53	1741
54.54	1777
54.55	1803
54.56	1818
54.57	1796
54.58	1765
54.59	1778
54.6	1778
54.61	1767
54.62	1755
54.63	1750
54.64	1743
54.65	1767
54.66	1764
54.67	1731
54.68	1719
54.69	1716
54.7	1756
54.71	1750
54.72	1741
54.73	1767
54.74	1790
54.75	1774
54.76	1751
54.77	1757
54.78	1760
54.79	1747
54.8	1721
54.81	1709
54.82	1720
54.83	1719
54.84	1716
54.85	1734
54.86	1741
54.87	1723
54.88	1695
54.89	1690
54.9	1690
54.91	1757
54.92	1783
54.93	1762
54.94	1732
54.95	1712
54.96	1689
54.97	1701
54.98	1750
54.99	1769
55.0	1762
55.01	1774
55.02	1743
55.03	1718
55.04	1714
55.05	1724
55.06	1714
55.07	1707
55.08	1734
55.09	1740
55.1	1721
55.11	1684
55.12	1694
55.13	1718
55.14	1727
55.15	1746
55.16	1749
55.17	1736
55.18	1743
55.19	1730
55.2	1709
55.21	1704
55.22	1696
55.23	1710
55.24	1738
55.25	1715
55.26	1724
55.27	1764
55.28	1767
55.29	1724
55.3	1686
55.31	1693
55.32	1692
55.33	1720
55.34	1737
55.35	1701
55.36	1690
55.37	1712
55.38	1733
55.39	1731
55.4	1720
55.41	1722
55.42	1732
55.43	1749
55.44	1762
55.45	1743
55.46	1731
55.47	1717
55.48	1704
55.49	1711
55.5	1712
55.51	1693
55.52	1704
55.53	1747
55.54	1744
55.55	1698
55.56	1697
55.57	1739
55.58	1747
55.59	1695
55.6	1711
55.61	1733
55.62	1694
55.63	1672
55.64	1719
55.65	1732
55.66	1705
55.67	1714
55.68	1702
55.69	1711
55.7	1727
55.71	1700
55.72	1695
55.73	1713
55.74	1723
55.75	1734
55.76	1704
55.77	1702
55.78	1718
55.79	1771
55.8	1771
55.81	1737
55.82	1718
55.83	1696
55.84	1683
55.85	1671
55.86	1683
55.87	1693
55.88	1699
55.89	1697
55.9	1688
55.91	1693
55.92	1711
55.93	1713
55.94	1706
55.95	1734
55.96	1705
55.97	1702
55.98	1689
55.99	1695
56.0	1699
56.01	1680
56.02	1701
56.03	1723
56.04	1723
56.05	1706
56.06	1695
56.07	1684
56.08	1685
56.09	1729
56.1	1708
56.11	1686
56.12	1704
56.13	1716
56.14	1761
56.15	1737
56.16	1692
56.17	1664
56.18	1665
56.19	1662
56.2	1690
56.21	1729
56.22	1684
56.23	1682
56.24	1740
56.25	1734
56.26	1689
56.27	1697
56.28	1694
56.29	1652
56.3	1660
56.31	1705
56.32	1699
56.33	1686
56.34	1688
56.35	1730
56.36	1721
56.37	1696
56.38	1680
56.39	1664
56.4	1698
56.41	1723
56.42	1704
56.43	1667
56.44	1686
56.45	1739
56.46	1750
56.47	1730
56.48	1676
56.49	1665
56.5	1695
56.51	1696
56.52	1690
56.53	1671
56.54	1700
56.55	1667
56.56	1655
56.57	1690
56.58	1764
56.59	1734
56.6	1659
56.61	1645
56.62	1686
56.63	1691
56.64	1695
56.65	1665
56.66	1648
56.67	1671
56.68	1671
56.69	1691
56.7	1721
56.71	1717
56.72	1721
56.73	1735
56.74	1689
56.75	1642
56.76	1629
56.77	1658
56.78	1708
56.79	1699
56.8	1710
56.81	1732
56.82	1701
56.83	1667
56.84	1664
56.85	1672
56.86	1708
56.87	1684
56.88	1650
56.89	1662
56.9	1681
56.91	1710
56.92	1732
56.93	1667
56.94	1626
56.95	1652
56.96	1676
56.97	1667
56.98	1665
56.99	1676
57.0	1657
57.01	1683
57.02	1670
57.03	1673
57.04	1672
57.05	1651
57.06	1644
57.07	1657
57.08	1659
57.09	1674
57.1	1666
57.11	1681
57.12	1662
57.13	1610
57.14	1621
57.15	1673
57.16	1684
57.17	1678
57.18	1631
57.19	1643
57.2	1698
57.21	1674
57.22	1645
57.23	1650
57.24	1654
57.25	1703
57.26	1740
57.27	1704
57.28	1671
57.29	1650
57.3	1645
57.31	1657
57.32	1668
57.33	1661
57.34	1671
57.35	1672
57.36	1667
57.37	1647
57.38	1666
57.39	1669
57.4	1659
57.41	1655
57.42	1663
57.43	1663
57.44	1637
57.45	1674
57.46	1682
57.47	1679
57.48	1660
57.49	1684
57.5	1676
57.51	1661
57.52	1685
57.53	1709
57.54	1668
57.55	1650
57.56	1650
57.57	1664
57.58	1686
57.59	1697
57.6	1658
57.61	1627
57.62	1591
57.63	1632
57.64	1642
57.65	1645
57.66	1650
57.67	1656
57.68	1644
57.69	1673
57.7	1685
57.71	1671
57.72	1658
57.73	1616
57.74	1613
57.75	1649
57.76	1663
57.77	1669
57.78	1639
57.79	1650
57.8	1657
57.81	1653
57.82	1651
57.83	1682
57.84	1680
57.85	1650
57.86	1668
57.87	1715
57.88	1686
57.89	1691
57.9	1637
57.91	1607
57.92	1660
57.93	1678
57.94	1697
57.95	1705
57.96	1711
57.97	1700
57.98	1682
57.99	1691
58.0	1664
58.01	1640
58.02	1642
58.03	1630
58.04	1618
58.05	1656
58.06	1682
58.07	1672
58.08	1639
58.09	1620
58.1	1651
58.11	1653
58.12	1649
58.13	1654
58.14	1676
58.15	1676
58.16	1675
58.17	1701
58.18	1747
58.19	1716
58.2	1710
58.21	1699
58.22	1692
58.23	1753
58.24	1785
58.25	1798
58.26	1795
58.27	1780
58.28	1780
58.29	1815
58.3	1873
58.31	1868
58.32	1813
58.33	1777
58.34	1788
58.35	1772
58.36	1729
58.37	1762
58.38	1809
58.39	1791
58.4	1792
58.41	1778
58.42	1791
58.43	1794
58.44	1809
58.45	1787
58.46	1750
58.47	1738
58.48	1757
58.49	1771
58.5	1771
58.51	1740
58.52	1694
58.53	1707
58.54	1710
58.55	1744
58.56	1738
58.57	1706
58.58	1710
58.59	1729
58.6	1704
58.61	1686
58.62	1705
58.63	1718
58.64	1704
58.65	1676
58.66	1656
58.67	1650
58.68	1707
58.69	1701
58.7	1690
58.71	1663
58.72	1625
58.73	1678
58.74	1707
58.75	1692
58.76	1728
58.77	1733
58.78	1702
58.79	1694
58.8	1705
58.81	1671
58.82	1639
58.83	1669
58.84	1687
58.85	1758
58.86	1727
58.87	1710
58.88	1722
58.89	1718
58.9	1712
58.91	1726
58.92	1702
58.93	1704
58.94	1681
58.95	1670
58.96	1751
58.97	1749
58.98	1696
58.99	1661
59.0	1678
59.01	1730
59.02	1732
59.03	1718
59.04	1719
59.05	1702
59.06	1667
59.07	1667
59.08	1653
59.09	1639
59.1	1655
59.11	1684
59.12	1705
59.13	1698
59.14	1685
59.15	1706
59.16	1716
59.17	1741
59.18	1743
59.19	1739
59.2	1750
59.21	1757
59.22	1711
59.23	1712
59.24	1715
59.25	1681
59.26	1681
59.27	1734
59.28	1750
59.29	1751
59.3	1705
59.31	1735
59.32	1758
59.33	1742
59.34	1692
59.35	1681
59.36	1706
59.37	1715
59.38	1681
59.39	1644
59.4	1630
59.41	1637
59.42	1660
59.43	1664
59.44	1656
59.45	1650
59.46	1651
59.47	1674
59.48	1648
59.49	1641
59.5	1634
59.51	1671
59.52	1672
59.53	1613
59.54	1619
59.55	1641
59.56	1636
59.57	1646
59.58	1643
59.59	1658
59.6	1619
59.61	1631
59.62	1683
59.63	1668
59.64	1623
59.65	1601
59.66	1634
59.67	1633
59.68	1627
59.69	1643
59.7	1636
59.71	1646
59.72	1642
59.73	1652
59.74	1641
59.75	1627
59.76	1654
59.77	1662
59.78	1638
59.79	1610
59.8	1635
59.81	1645
59.82	1632
59.83	1620
59.84	1666
59.85	1683
59.86	1667
59.87	1652
59.88	1636
59.89	1625
59.9	1632
59.91	1661
59.92	1619
59.93	1602
59.94	1635
59.95	1642
59.96	1628
59.97	1631
59.98	1625
59.99	1624
60.0	1630
60.01	1693
60.02	1663
60.03	1634
60.04	1638
60.05	1640
60.06	1616
60.07	1633
60.08	1654
60.09	1695
60.1	1659
60.11	1644
60.12	1648
60.13	1639
60.14	1593
60.15	1623
60.16	1653
60.17	1640
60.18	1649
60.19	1689
60.2	1674
60.21	1650
60.22	1662
60.23	1629
60.24	1597
60.25	1611
60.26	1651
60.27	1654
60.28	1632
60.29	1648
60.3	1662
60.31	1620
60.32	1601
60.33	1641
60.34	1679
60.35	1631
60.36	1653
60.37	1654
60.38	1626
60.39	1662
60.4	1676
60.41	1624
60.42	1645
60.43	1695
60.44	1649
60.45	1615
60.46	1623
60.47	1643
60.48	1649
60.49	1625
60.5	1637
60.51	1654
60.52	1655
60.53	1649
60.54	1621
60.55	1661
60.56	1686
60.57	1671
60.58	1652
60.59	1644
60.6	1645
60.61	1660
60.62	1646
60.63	1709
60.64	1704
60.65	1667
60.66	1658
60.67	1685
60.68	1677
60.69	1661
60.7	1689
60.71	1680
60.72	1648
60.73	1672
60.74	1659
60.75	1674
60.76	1671
60.77	1702
60.78	1671
60.79	1663
60.8	1694
60.81	1722
60.82	1688
60.83	1674
60.84	1662
60.85	1706
60.86	1705
60.87	1692
60.88	1695
60.89	1694
60.9	1661
60.91	1714
60.92	1717
60.93	1690
60.94	1679
60.95	1695
60.96	1748
60.97	1797
60.98	1761
60.99	1792
61.0	1821
61.01	1826
61.02	1812
61.03	1831
61.04	1848
61.05	1862
61.06	1877
61.07	1875
61.08	1831
61.09	1916
61.1	1917
61.11	1925
61.12	1931
61.13	1932
61.14	1935
61.15	1977
61.16	2012
61.17	2040
61.18	2093
61.19	2156
61.2	2178
61.21	2214
61.22	2297
61.23	2426
61.24	2473
61.25	2608
61.26	2699
61.27	2846
61.28	2965
61.29	3183
61.3	3402
61.31	3538
61.32	3723
61.33	3993
61.34	4163
61.35	4333
61.36	4484
61.37	4416
61.38	4305
61.39	4412
61.4	4260
61.41	4138
61.42	4029
61.43	3881
61.44	3613
61.45	3471
61.46	3304
61.47	3319
61.48	3393
61.49	3409
61.5	3298
61.51	3315
61.52	3374
61.53	3316
61.54	3196
61.55	3183
61.56	3169
61.57	3111
61.58	2924
61.59	2802
61.6	2700
61.61	2588
61.62	2486
61.63	2411
61.64	2324
61.65	2236
61.66	2139
61.67	2159
61.68	2141
61.69	2073
61.7	1950
61.71	1962
61.72	1971
61.73	1940
61.74	1925
61.75	1949
61.76	1961
61.77	1959
61.78	1914
61.79	1861
61.8	1913
61.81	1944
61.82	1931
61.83	1920
61.84	1912
61.85	1881
61.86	1892
61.87	1948
61.88	1945
61.89	1945
61.9	1979
61.91	2003
61.92	2006
61.93	2004
61.94	2007
61.95	2034
61.96	2030
61.97	2034
61.98	2068
61.99	2146
62.0	2079
62.01	2081
62.02	2063
62.03	2057
62.04	2051
62.05	2074
62.06	2028
62.07	2098
62.08	2035
62.09	2035
62.1	2001
62.11	1953
62.12	1936
62.13	1943
62.14	1965
62.15	1976
62.16	1971
62.17	1913
62.18	1912
62.19	1945
62.2	1895
62.21	1932
62.22	1881
62.23	1887
62.24	1878
62.25	1813
62.26	1779
62.27	1802
62.28	1777
62.29	1788
62.3	1781
62.31	1769
62.32	1782
62.33	1723
62.34	1686
62.35	1677
62.36	1683
62.37	1700
62.38	1728
62.39	1736
62.4	1707
62.41	1698
62.42	1706
62.43	1691
62.44	1645
62.45	1670
62.46	1690
62.47	1671
62.48	1700
62.49	1697
62.5	1707
62.51	1712
62.52	1712
62.53	1722
62.54	1693
62.55	1702
62.56	1715
62.57	1658
62.58	1652
62.59	1661
62.6	1708
62.61	1676
62.62	1670
62.63	1673
62.64	1682
62.65	1676
62.66	1707
62.67	1678
62.68	1621
62.69	1654
62.7	1728
62.71	1699
62.72	1686
62.73	1648
62.74	1636
62.75	1705
62.76	1662
62.77	1677
62.78	1692
62.79	1665
62.8	1666
62.81	1679
62.82	1671
62.83	1690
62.84	1672
62.85	1741
62.86	1720
62.87	1741
62.88	1690
62.89	1695
62.9	1649
62.91	1655
62.92	1657
62.93	1668
62.94	1734
62.95	1695
62.96	1709
62.97	1702
62.98	1696
62.99	1749
63.0	1782
63.01	1780
63.02	1732
63.03	1703
63.04	1710
63.05	1704
63.06	1709
63.07	1652
63.08	1636
63.09	1742
63.1	1735
63.11	1758
63.12	1721
63.13	1666
63.14	1691
63.15	1713
63.16	1654
63.17	1719
63.18	1741
63.19	1719
63.2	1711
63.21	1738
63.22	1713
63.23	1722
63.24	1711
63.25	1715
63.26	1735
63.27	1685
63.28	1684
63.29	1675
63.3	1688
63.31	1691
63.32	1667
63.33	1726
63.34	1699
63.35	1658
63.36	1616
63.37	1614
63.38	1630
63.39	1648
63.4	1645
63.41	1635
63.42	1644
63.43	1662
63.44	1703
63.45	1674
63.46	1626
63.47	1621
63.48	1631
63.49	1660
63.5	1625
63.51	1618
63.52	1624
63.53	1616
63.54	1635
63.55	1590
63.56	1603
63.57	1654
63.58	1611
63.59	1615
63.6	1626
63.61	1601
63.62	1575
63.63	1528
63.64	1521
63.65	1586
63.66	1570
63.67	1606
63.68	1620
63.69	1600
63.7	1587
63.71	1579
63.72	1577
63.73	1608
63.74	1600
63.75	1592
63.76	1603
63.77	1595
63.78	1585
63.79	1591
63.8	1589
63.81	1563
63.82	1486
63.83	1555
63.84	1579
63.85	1599
63.86	1590
63.87	1539
63.88	1552
63.89	1578
63.9	1565
63.91	1609
63.92	1608
63.93	1601
63.94	1613
63.95	1542
63.96	1577
63.97	1566
63.98	1520
63.99	1512
64.0	1550
64.01	1571
64.02	1566
64.03	1609
64.04	1599
64.05	1565
64.06	1556
64.07	1549
64.08	1550
64.09	1589
64.1	1578
64.11	1609
64.12	1619
64.13	1589
64.14	1565
64.15	1551
64.16	1550
64.17	1617
64.18	1582
64.19	1586
64.2	1607
64.21	1611
64.22	1549
64.23	1576
64.24	1597
64.25	1603
64.26	1612
64.27	1574
64.28	1531
64.29	1563
64.3	1537
64.31	1587
64.32	1547
64.33	1541
64.34	1526
64.35	1558
64.36	1584
64.37	1589
64.38	1586
64.39	1559
64.4	1574
64.41	1547
64.42	1526
64.43	1582
64.44	1616
64.45	1575
64.46	1534
64.47	1574
64.48	1628
64.49	1643
64.5	1614
64.51	1569
64.52	1580
64.53	1553
64.54	1510
64.55	1566
64.56	1589
64.57	1632
64.58	1621
64.59	1580
64.6	1590
64.61	1563
64.62	1591
64.63	1581
64.64	1643
64.65	1636
64.66	1669
64.67	1679
64.68	1629
64.69	1625
64.7	1664
64.71	1687
64.72	1663
64.73	1666
64.74	1690
64.75	1751
64.76	1822
64.77	1830
64.78	1867
64.79	1942
64.8	1974
64.81	2028
64.82	2059
64.83	2060
64.84	2142
64.85	2193
64.86	2090
64.87	2058
64.88	2062
64.89	2038
64.9	2036
64.91	1970
64.92	1915
64.93	1964
64.94	1896
64.95	1811
64.96	1838
64.97	1914
64.98	1884
64.99	1876
65.0	1856
65.01	1851
65.02	1884
65.03	1862
65.04	1889
65.05	1832
65.06	1821
65.07	1826
65.08	1791
65.09	1769
65.1	1678
65.11	1699
65.12	1740
65.13	1699
65.14	1707
65.15	1677
65.16	1650
65.17	1651
65.18	1596
65.19	1596
65.2	1584
65.21	1619
65.22	1586
65.23	1597
65.24	1580
65.25	1544
65.26	1573
65.27	1589
65.28	1544
65.29	1564
65.3	1598
65.31	1545
65.32	1571
65.33	1558
65.34	1545
65.35	1537
65.36	1571
65.37	1596
65.38	1571
65.39	1573
65.4	1559
65.41	1574
65.42	1545
65.43	1564
65.44	1529
65.45	1486
65.46	1546
65.47	1540
65.48	1547
65.49	1575
65.5	1574
65.51	1561
65.52	1553
65.53	1547
65.54	1528
65.55	1544
65.56	1548
65.57	1520
65.58	1533
65.59	1536
65.6	1523
65.61	1468
65.62	1535
65.63	1541
65.64	1559
65.65	1526
65.66	1512
65.67	1565
65.68	1509
65.69	1494
65.7	1599
65.71	1588
65.72	1485
65.73	1549
65.74	1531
65.75	1519
65.76	1494
65.77	1489
65.78	1481
65.79	1510
65.8	1526
65.81	1578
65.82	1587
65.83	1567
65.84	1572
65.85	1575
65.86	1534
65.87	1534
65.88	1524
65.89	1551
65.9	1537
65.91	1555
65.92	1513
65.93	1496
65.94	1487
65.95	1505
65.96	1513
65.97	1520
65.98	1517
65.99	1492
66.0	1496
66.01	1479
66.02	1548
66.03	1519
66.04	1498
66.05	1519
66.06	1559
66.07	1551
66.08	1555
66.09	1511
66.1	1527
66.11	1503
66.12	1514
66.13	1530
66.14	1542
66.15	1539
66.16	1507
66.17	1544
66.18	1554
66.19	1555
66.2	1542
66.21	1524
66.22	1560
66.23	1559
66.24	1547
66.25	1556
66.26	1547
66.27	1568
66.28	1575
66.29	1601
66.3	1596
66.31	1566
66.32	1562
66.33	1621
66.34	1533
66.35	1523
66.36	1545
66.37	1567
66.38	1549
66.39	1543
66.4	1572
66.41	1551
66.42	1590
66.43	1588
66.44	1580
66.45	1598
66.46	1582
66.47	1631
66.48	1652
66.49	1649
66.5	1693
66.51	1740
66.52	1779
66.53	1798
66.54	1792
66.55	1835
66.56	1948
66.57	1985
66.58	2069
66.59	2071
66.6	2116
66.61	2124
66.62	2153
66.63	2169
66.64	2110
66.65	2088
66.66	1961
66.67	1937
66.68	1941
66.69	1899
66.7	1862
66.71	1780
66.72	1841
66.73	1815
66.74	1844
66.75	1818
66.76	1859
66.77	1952
66.78	1912
66.79	1883
66.8	1857
66.81	1858
66.82	1819
66.83	1789
66.84	1801
66.85	1758
66.86	1658
66.87	1659
66.88	1676
66.89	1673
66.9	1622
66.91	1634
66.92	1595
66.93	1613
66.94	1561
66.95	1524
66.96	1534
66.97	1479
66.98	1514
66.99	1549
67.0	1578
67.01	1558
67.02	1529
67.03	1546
67.04	1546
67.05	1541
67.06	1548
67.07	1509
67.08	1504
67.09	1532
67.1	1511
67.11	1475
67.12	1488
67.13	1532
67.14	1478
67.15	1494
67.16	1499
67.17	1557
67.18	1507
67.19	1503
67.2	1526
67.21	1510
67.22	1457
67.23	1470
67.24	1528
67.25	1506
67.26	1524
67.27	1518
67.28	1540
67.29	1547
67.3	1479
67.31	1529
67.32	1567
67.33	1501
67.34	1479
67.35	1504
67.36	1556
67.37	1509
67.38	1464
67.39	1473
67.4	1527
67.41	1510
67.42	1464
67.43	1485
67.44	1537
67.45	1541
67.46	1486
67.47	1497
67.48	1506
67.49	1535
67.5	1536
67.51	1497
67.52	1467
67.53	1487
67.54	1502
67.55	1452
67.56	1520
67.57	1563
67.58	1535
67.59	1501
67.6	1494
67.61	1459
67.62	1501
67.63	1508
67.64	1456
67.65	1464
67.66	1500
67.67	1494
67.68	1516
67.69	1497
67.7	1481
67.71	1476
67.72	1544
67.73	1518
67.74	1480
67.75	1485
67.76	1482
67.77	1455
67.78	1489
67.79	1501
67.8	1526
67.81	1501
67.82	1506
67.83	1465
67.84	1455
67.85	1506
67.86	1474
67.87	1467
67.88	1516
67.89	1488
67.9	1450
67.91	1491
67.92	1487
67.93	1450
67.94	1496
67.95	1520
67.96	1447
67.97	1470
67.98	1510
67.99	1462
68.0	1525
68.01	1532
68.02	1499
68.03	1524
68.04	1512
68.05	1490
68.06	1481
68.07	1482
68.08	1515
68.09	1505
68.1	1481
68.11	1514
68.12	1532
68.13	1519
68.14	1496
68.15	1503
68.16	1544
68.17	1519
68.18	1492
68.19	1443
68.2	1451
68.21	1461
68.22	1484
68.23	1492
68.24	1484
68.25	1432
68.26	1460
68.27	1506
68.28	1486
68.29	1477
68.3	1461
68.31	1477
68.32	1489
68.33	1468
68.34	1481
68.35	1505
68.36	1508
68.37	1493
68.38	1502
68.39	1480
68.4	1491
68.41	1481
68.42	1489
68.43	1485
68.44	1528
68.45	1504
68.46	1449
68.47	1453
68.48	1494
68.49	1456
68.5	1421
68.51	1488
68.52	1488
68.53	1425
68.54	1458
68.55	1527
68.56	1486
68.57	1458
68.58	1461
68.59	1508
68.6	1546
68.61	1487
68.62	1479
68.63	1476
68.64	1482
68.65	1498
68.66	1484
68.67	1509
68.68	1533
68.69	1462
68.7	1477
68.71	1462
68.72	1460
68.73	1505
68.74	1507
68.75	1545
68.76	1521
68.77	1501
68.78	1574
68.79	1577
68.8	1562
68.81	1557
68.82	1600
68.83	1576
68.84	1624
68.85	1597
68.86	1622
68.87	1650
68.88	1592
68.89	1544
68.9	1556
68.91	1608
68.92	1587
68.93	1539
68.94	1535
68.95	1545
68.96	1548
68.97	1581
68.98	1571
68.99	1548
69.0	1562
69.01	1559
69.02	1590
69.03	1553
69.04	1567
69.05	1566
69.06	1515
69.07	1538
69.08	1594
69.09	1573
69.1	1564
69.11	1544
69.12	1549
69.13	1558
69.14	1526
69.15	1483
69.16	1497
69.17	1536
69.18	1531
69.19	1512
69.2	1543
69.21	1449
69.22	1507
69.23	1529
69.24	1512
69.25	1476
69.26	1462
69.27	1523
69.28	1465
69.29	1503
69.3	1503
69.31	1472
69.32	1475
69.33	1514
69.34	1514
69.35	1513
69.36	1470
69.37	1481
69.38	1475
69.39	1531
69.4	1552
69.41	1502
69.42	1477
69.43	1494
69.44	1515
69.45	1509
69.46	1504
69.47	1468
69.48	1534
69.49	1515
69.5	1521
69.51	1499
69.52	1517
69.53	1511
69.54	1533
69.55	1532
69.56	1516
69.57	1526
69.58	1495
69.59	1499
69.6	1543
69.61	1524
69.62	1569
69.63	1594
69.64	1578
69.65	1566
69.66	1555
69.67	1597
69.68	1571
69.69	1604
69.7	1617
69.71	1603
69.72	1614
69.73	1642
69.74	1666
69.75	1666
69.76	1621
69.77	1601
69.78	1561
69.79	1583
69.8	1588
69.81	1560
69.82	1561
69.83	1582
69.84	1565
69.85	1548
69.86	1577
69.87	1570
69.88	1637
69.89	1553
69.9	1558
69.91	1586
69.92	1563
69.93	1581
69.94	1570
69.95	1582
69.96	1542
69.97	1541
69.98	1551
69.99	1557
70.0	1533
70.01	1571
70.02	1596
70.03	1564
70.04	1578
70.05	1571
70.06	1596
70.07	1606
70.08	1616
70.09	1600
70.1	1613
70.11	1650
70.12	1648
70.13	1575
70.14	1564
70.15	1568
70.16	1565
70.17	1589
70.18	1621
70.19	1557
70.2	1567
70.21	1587
70.22	1538
70.23	1574
70.24	1582
70.25	1524
70.26	1555
70.27	1542
70.28	1552
70.29	1546
70.3	1546
70.31	1574
70.32	1584
70.33	1568
70.34	1509
70.35	1529
70.36	1522
70.37	1526
70.38	1551
70.39	1570
70.4	1582
70.41	1564
70.42	1520
70.43	1486
70.44	1489
70.45	1470
70.46	1475
70.47	1494
70.48	1486
70.49	1494
70.5	1491
70.51	1494
70.52	1464
70.53	1472
70.54	1482
70.55	1505
70.56	1513
70.57	1519
70.58	1494
70.59	1465
70.6	1477
70.61	1471
70.62	1476
70.63	1472
70.64	1480
70.65	1508
70.66	1492
70.67	1472
70.68	1490
70.69	1491
70.7	1514
70.71	1534
70.72	1530
70.73	1529
70.74	1447
70.75	1447
70.76	1456
70.77	1485
70.78	1453
70.79	1450
70.8	1468
70.81	1502
70.82	1503
70.83	1472
70.84	1451
70.85	1472
70.86	1479
70.87	1494
70.88	1509
70.89	1507
70.9	1498
70.91	1465
70.92	1468
70.93	1426
70.94	1422
70.95	1487
70.96	1459
70.97	1473
70.98	1488
70.99	1483
71.0	1476
71.01	1473
71.02	1443
71.03	1462
71.04	1464
71.05	1407
71.06	1462
71.07	1486
71.08	1475
71.09	1446
71.1	1445
71.11	1435
71.12	1433
71.13	1496
71.14	1501
71.15	1527
71.16	1464
71.17	1468
71.18	1500
71.19	1485
71.2	1423
71.21	1413
71.22	1464
71.23	1478
71.24	1424
71.25	1468
71.26	1457
71.27	1479
71.28	1512
71.29	1520
71.3	1474
71.31	1467
71.32	1513
71.33	1482
71.34	1473
71.35	1454
71.36	1471
71.37	1497
71.38	1503
71.39	1459
71.4	1481
71.41	1453
71.42	1468
71.43	1460
71.44	1437
71.45	1454
71.46	1458
71.47	1452
71.48	1470
71.49	1490
71.5	1468
71.51	1462
71.52	1485
71.53	1455
71.54	1449
71.55	1487
71.56	1477
71.57	1502
71.58	1409
71.59	1437
71.6	1459
71.61	1466
71.62	1496
71.63	1477
71.64	1490
71.65	1497
71.66	1477
71.67	1481
71.68	1492
71.69	1470
71.7	1472
71.71	1494
71.72	1506
71.73	1496
71.74	1489
71.75	1466
71.76	1502
71.77	1507
71.78	1502
71.79	1520
71.8	1498
71.81	1446
71.82	1461
71.83	1472
71.84	1477
71.85	1508
71.86	1517
71.87	1512
71.88	1437
71.89	1429
71.9	1516
71.91	1503
71.92	1484
71.93	1534
71.94	1518
71.95	1503
71.96	1537
71.97	1534
71.98	1555
71.99	1534
72.0	1483
72.01	1463
72.02	1491
72.03	1547
72.04	1500
72.05	1530
72.06	1511
72.07	1488
72.08	1521
72.09	1542
72.1	1542
72.11	1536
72.12	1575
72.13	1591
72.14	1548
72.15	1564
72.16	1591
72.17	1616
72.18	1591
72.19	1560
72.2	1523
72.21	1606
72.22	1627
72.23	1629
72.24	1631
72.25	1662
72.26	1686
72.27	1667
72.28	1666
72.29	1637
72.3	1696
72.31	1692
72.32	1662
72.33	1689
72.34	1691
72.35	1704
72.36	1675
72.37	1640
72.38	1644
72.39	1678
72.4	1701
72.41	1680
72.42	1641
72.43	1584
72.44	1619
72.45	1650
72.46	1605
72.47	1645
72.48	1632
72.49	1664
72.5	1664
72.51	1673
72.52	1689
72.53	1635
72.54	1606
72.55	1637
72.56	1656
72.57	1668
72.58	1651
72.59	1702
72.6	1652
72.61	1584
72.62	1577
72.63	1567
72.64	1559
72.65	1583
72.66	1591
72.67	1595
72.68	1578
72.69	1583
72.7	1541
72.71	1528
72.72	1560
72.73	1582
72.74	1528
72.75	1515
72.76	1562
72.77	1538
72.78	1513
72.79	1506
72.8	1501
72.81	1502
72.82	1529
72.83	1539
72.84	1548
72.85	1496
72.86	1502
72.87	1497
72.88	1479
72.89	1467
72.9	1487
72.91	1529
72.92	1498
72.93	1461
72.94	1453
72.95	1481
72.96	1480
72.97	1484
72.98	1466
72.99	1485
73.0	1472
73.01	1470
73.02	1497
73.03	1445
73.04	1430
73.05	1426
73.06	1481
73.07	1482
73.08	1498
73.09	1415
73.1	1396
73.11	1470
73.12	1453
73.13	1445
73.14	1449
73.15	1444
73.16	1472
73.17	1439
73.18	1447
73.19	1466
73.2	1451
73.21	1432
73.22	1466
73.23	1453
73.24	1424
73.25	1430
73.26	1475
73.27	1500
73.28	1433
73.29	1455
73.3	1439
73.31	1404
73.32	1469
73.33	1424
73.34	1423
73.35	1463
73.36	1459
73.37	1442
73.38	1425
73.39	1437
73.4	1471
73.41	1456
73.42	1466
73.43	1458
73.44	1440
73.45	1450
73.46	1450
73.47	1450
73.48	1499
73.49	1491
73.5	1497
73.51	1458
73.52	1443
73.53	1445
73.54	1455
73.55	1469
73.56	1470
73.57	1447
73.58	1417
73.59	1465
73.6	1421
73.61	1398
73.62	1431
73.63	1436
73.64	1421
73.65	1412
73.66	1419
73.67	1434
73.68	1438
73.69	1406
73.7	1442
73.71	1428
73.72	1438
73.73	1469
73.74	1481
73.75	1504
73.76	1462
73.77	1445
73.78	1487
73.79	1448
73.8	1421
73.81	1436
73.82	1495
73.83	1495
73.84	1469
73.85	1430
73.86	1441
73.87	1383
73.88	1393
73.89	1444
73.9	1447
73.91	1407
73.92	1441
73.93	1472
73.94	1457
73.95	1413
73.96	1450
73.97	1456
73.98	1439
73.99	1430
74.0	1413
74.01	1425
74.02	1457
74.03	1450
74.04	1473
74.05	1485
74.06	1494
74.07	1488
74.08	1462
74.09	1479
74.1	1449
74.11	1435
74.12	1472
74.13	1440
74.14	1393
74.15	1449
74.16	1425
74.17	1495
74.18	1475
74.19	1411
74.2	1431
74.21	1442
74.22	1419
74.23	1434
74.24	1432
74.25	1440
74.26	1424
74.27	1457
74.28	1420
74.29	1430
74.3	1434
74.31	1430
74.32	1436
74.33	1475
74.34	1411
74.35	1444
74.36	1438
74.37	1425
74.38	1381
74.39	1414
74.4	1437
74.41	1425
74.42	1407
74.43	1388
74.44	1418
74.45	1434
74.46	1422
74.47	1434
74.48	1444
74.49	1439
74.5	1389
74.51	1442
74.52	1462
74.53	1427
74.54	1452
74.55	1410
74.56	1372
74.57	1384
74.58	1447
74.59	1444
74.6	1414
74.61	1395
74.62	1393
74.63	1391
74.64	1425
74.65	1430
74.66	1421
74.67	1416
74.68	1370
74.69	1380
74.7	1424
74.71	1412
74.72	1398
74.73	1386
74.74	1438
74.75	1405
74.76	1386
74.77	1396
74.78	1447
74.79	1421
74.8	1386
74.81	1376
74.82	1402
74.83	1459
74.84	1433
74.85	1403
74.86	1398
74.87	1383
74.88	1406
74.89	1387
74.9	1453
74.91	1448
74.92	1402
74.93	1421
74.94	1409
74.95	1414
74.96	1408
74.97	1424
74.98	1397
74.99	1416
75.0	1428
75.01	1475
75.02	1442
75.03	1419
75.04	1429
75.05	1451
75.06	1438
75.07	1450
75.08	1461
75.09	1445
75.1	1418
75.11	1404
75.12	1405
75.13	1379
75.14	1363
75.15	1407
75.16	1431
75.17	1441
75.18	1418
75.19	1437
75.2	1436
75.21	1459
75.22	1421
75.23	1397
75.24	1436
75.25	1436
75.26	1412
75.27	1416
75.28	1433
75.29	1436
75.3	1442
75.31	1415
75.32	1411
75.33	1437
75.34	1438
75.35	1440
75.36	1464
75.37	1406
75.38	1394
75.39	1445
75.4	1406
75.41	1416
75.42	1435
75.43	1425
75.44	1414
75.45	1375
75.46	1369
75.47	1331
75.48	1420
75.49	1439
75.5	1375
75.51	1379
75.52	1413
75.53	1438
75.54	1403
75.55	1389
75.56	1405
75.57	1399
75.58	1418
75.59	1398
75.6	1408
75.61	1418
75.62	1369
75.63	1422
75.64	1396
75.65	1338
75.66	1388
75.67	1403
75.68	1405
75.69	1426
75.7	1439
75.71	1434
75.72	1425
75.73	1419
75.74	1385
75.75	1388
75.76	1423
75.77	1410
75.78	1415
75.79	1413
75.8	1425
75.81	1429
75.82	1364
75.83	1387
75.84	1420
75.85	1408
75.86	1382
75.87	1420
75.88	1364
75.89	1406
75.9	1436
75.91	1421
75.92	1428
75.93	1431
75.94	1400
75.95	1391
75.96	1402
75.97	1407
75.98	1401
75.99	1395
76.0	1401
76.01	1459
76.02	1372
76.03	1369
76.04	1409
76.05	1423
76.06	1463
76.07	1414
76.08	1396
76.09	1443
76.1	1402
76.11	1367
76.12	1415
76.13	1414
76.14	1413
76.15	1394
76.16	1415
76.17	1443
76.18	1389
76.19	1397
76.2	1408
76.21	1426
76.22	1438
76.23	1484
76.24	1466
76.25	1379
76.26	1390
76.27	1465
76.28	1410
76.29	1382
76.3	1379
76.31	1379
76.32	1396
76.33	1427
76.34	1406
76.35	1389
76.36	1376
76.37	1421
76.38	1432
76.39	1422
76.4	1415
76.41	1410
76.42	1418
76.43	1435
76.44	1436
76.45	1467
76.46	1441
76.47	1438
76.48	1440
76.49	1404
76.5	1428
76.51	1420
76.52	1391
76.53	1356
76.54	1361
76.55	1408
76.56	1436
76.57	1432
76.58	1420
76.59	1403
76.6	1390
76.61	1367
76.62	1378
76.63	1379
76.64	1398
76.65	1405
76.66	1402
76.67	1398
76.68	1438
76.69	1413
76.7	1410
76.71	1441
76.72	1370
76.73	1392
76.74	1400
76.75	1449
76.76	1466
76.77	1411
76.78	1392
76.79	1405
76.8	1441
76.81	1427
76.82	1420
76.83	1395
76.84	1384
76.85	1383
76.86	1427
76.87	1408
76.88	1431
76.89	1465
76.9	1435
76.91	1415
76.92	1423
76.93	1406
76.94	1427
76.95	1483
76.96	1506
76.97	1449
76.98	1454
76.99	1412
77.0	1370
77.01	1363
77.02	1368
77.03	1405
77.04	1414
77.05	1399
77.06	1426
77.07	1435
77.08	1395
77.09	1415
77.1	1415
77.11	1415
77.12	1437
77.13	1443
77.14	1368
77.15	1358
77.16	1363
77.17	1401
77.18	1430
77.19	1422
77.2	1370
77.21	1429
77.22	1459
77.23	1459
77.24	1453
77.25	1427
77.26	1461
77.27	1505
77.28	1515
77.29	1522
77.3	1518
77.31	1499
77.32	1514
77.33	1508
77.34	1517
77.35	1545
77.36	1597
77.37	1581
77.38	1623
77.39	1637
77.4	1609
77.41	1586
77.42	1567
77.43	1618
77.44	1622
77.45	1616
77.46	1642
77.47	1627
77.48	1580
77.49	1573
77.5	1532
77.51	1515
77.52	1481
77.53	1539
77.54	1531
77.55	1495
77.56	1521
77.57	1519
77.58	1513
77.59	1535
77.6	1572
77.61	1525
77.62	1543
77.63	1543
77.64	1532
77.65	1546
77.66	1521
77.67	1524
77.68	1559
77.69	1519
77.7	1517
77.71	1490
77.72	1488
77.73	1441
77.74	1494
77.75	1470
77.76	1485
77.77	1453
77.78	1447
77.79	1441
77.8	1420
77.81	1414
77.82	1406
77.83	1473
77.84	1508
77.85	1410
77.86	1379
77.87	1469
77.88	1501
77.89	1417
77.9	1432
77.91	1445
77.92	1451
77.93	1381
77.94	1392
77.95	1432
77.96	1398
77.97	1420
77.98	1440
77.99	1447
78.0	1425
78.01	1419
78.02	1433
78.03	1437
78.04	1410
78.05	1401
78.06	1403
78.07	1415
78.08	1411
78.09	1427
78.1	1407
78.11	1403
78.12	1386
78.13	1361
78.14	1391
78.15	1410
78.16	1467
78.17	1452
78.18	1443
78.19	1421
78.2	1443
78.21	1433
78.22	1452
78.23	1417
78.24	1382
78.25	1420
78.26	1421
78.27	1478
78.28	1481
78.29	1480
78.3	1502
78.31	1478
78.32	1474
78.33	1488
78.34	1453
78.35	1470
78.36	1513
78.37	1566
78.38	1604
78.39	1597
78.4	1601
78.41	1670
78.42	1692
78.43	1680
78.44	1666
78.45	1700
78.46	1715
78.47	1815
78.48	1867
78.49	1917
78.5	1964
78.51	2017
78.52	2019
78.53	2006
78.54	1997
78.55	1959
78.56	1945
78.57	1934
78.58	1958
78.59	1933
78.6	1919
78.61	1950
78.62	1957
78.63	1870
78.64	1800
78.65	1819
78.66	1854
78.67	1890
78.68	1845
78.69	1789
78.7	1844
78.71	1871
78.72	1827
78.73	1858
78.74	1858
78.75	1851
78.76	1802
78.77	1787
78.78	1790
78.79	1795
78.8	1813
78.81	1718
78.82	1732
78.83	1708
78.84	1679
78.85	1686
78.86	1683
78.87	1642
78.88	1612
78.89	1578
78.9	1571
78.91	1539
78.92	1532
78.93	1511
78.94	1488
78.95	1501
78.96	1554
78.97	1551
78.98	1486
78.99	1439
79.0	1467
79.01	1482
79.02	1437
79.03	1441
79.04	1453
79.05	1431
79.06	1465
79.07	1462
79.08	1450
79.09	1442
79.1	1409
79.11	1392
79.12	1403
79.13	1409
79.14	1415
79.15	1401
79.16	1414
79.17	1397
79.18	1356
79.19	1366
79.2	1353
79.21	1366
79.22	1408
79.23	1464
79.24	1422
79.25	1392
79.26	1408
79.27	1411
79.28	1368
79.29	1379
79.3	1371
79.31	1336
79.32	1367
79.33	1397
79.34	1395
79.35	1372
79.36	1360
79.37	1397
79.38	1392
79.39	1372
79.4	1375
79.41	1363
79.42	1392
79.43	1368
79.44	1368
79.45	1381
79.46	1414
79.47	1391
79.48	1375
79.49	1393
79.5	1405
79.51	1413
79.52	1403
79.53	1388
79.54	1352
79.55	1400
79.56	1424
79.57	1436
79.58	1411
79.59	1423
79.6	1371
79.61	1356
79.62	1386
79.63	1428
79.64	1408
79.65	1383
79.66	1364
79.67	1367
79.68	1402
79.69	1401
79.7	1439
79.71	1462
79.72	1426
79.73	1462
79.74	1419
79.75	1387
79.76	1415
79.77	1379
79.78	1408
79.79	1414
79.8	1428
79.81	1428
79.82	1395
79.83	1405
79.84	1412
79.85	1413
79.86	1438
79.87	1409
79.88	1413
79.89	1412
79.9	1401
79.91	1461
79.92	1506
79.93	1485
79.94	1472
79.95	1434
79.96	1426
79.97	1472
79.98	1480
79.99	1524
80.0	1543
80.01	1557
80.02	1595
80.03	1556
80.04	1584
80.05	1641
80.06	1652
80.07	1629
80.08	1722
80.09	1728
80.1	1733
80.11	1769
80.12	1833
80.13	1871
80.14	1886
80.15	1940
80.16	1953
80.17	1963
80.18	1928
80.19	1888
80.2	1837
80.21	1802
80.22	1751
80.23	1740
80.24	1724
80.25	1739
80.26	1652
80.27	1665
80.28	1696
80.29	1681
80.3	1665
80.31	1637
80.32	1650
80.33	1601
80.34	1571
80.35	1625
80.36	1653
80.37	1616
80.38	1634
80.39	1641
80.4	1654
80.41	1651
80.42	1676
80.43	1680
80.44	1598
80.45	1558
80.46	1561
80.47	1550
80.48	1542
80.49	1510
80.5	1532
80.51	1487
80.52	1464
80.53	1473
80.54	1427
80.55	1434
80.56	1437
80.57	1470
80.58	1447
80.59	1423
80.6	1416
80.61	1408
80.62	1425
80.63	1431
80.64	1388
80.65	1422
80.66	1421
80.67	1416
80.68	1366
80.69	1364
80.7	1376
80.71	1358
80.72	1399
80.73	1383
80.74	1372
80.75	1364
80.76	1345
80.77	1363
80.78	1377
80.79	1366
80.8	1378
80.81	1408
80.82	1405
80.83	1341
80.84	1340
80.85	1361
80.86	1378
80.87	1418
80.88	1377
80.89	1382
80.9	1380
80.91	1343
80.92	1357
80.93	1340
80.94	1348
80.95	1347
80.96	1341
80.97	1357
80.98	1385
80.99	1382
81.0	1333
81.01	1330
81.02	1332
81.03	1310
81.04	1301
81.05	1323
81.06	1346
81.07	1361
81.08	1415
81.09	1368
81.1	1352
81.11	1386
81.12	1315
81.13	1318
81.14	1318
81.15	1291
81.16	1329
81.17	1364
81.18	1358
81.19	1356
81.2	1364
81.21	1315
81.22	1335
81.23	1357
81.24	1314
81.25	1334
81.26	1352
81.27	1398
81.28	1358
81.29	1301
81.3	1298
81.31	1368
81.32	1353
81.33	1327
81.34	1351
81.35	1324
81.36	1363
81.37	1390
81.38	1381
81.39	1396
81.4	1346
81.41	1397
81.42	1409
81.43	1350
81.44	1311
81.45	1319
81.46	1349
81.47	1368
81.48	1352
81.49	1346
81.5	1359
81.51	1358
81.52	1392
81.53	1363
81.54	1377
81.55	1368
81.56	1341
81.57	1337
81.58	1344
81.59	1315
81.6	1303
81.61	1317
81.62	1330
81.63	1338
81.64	1340
81.65	1325
81.66	1357
81.67	1352
81.68	1330
81.69	1336
81.7	1359
81.71	1376
81.72	1366
81.73	1365
81.74	1369
81.75	1360
81.76	1342
81.77	1349
81.78	1332
81.79	1330
81.8	1345
81.81	1344
81.82	1356
81.83	1338
81.84	1338
81.85	1346
81.86	1320
81.87	1298
81.88	1295
81.89	1329
81.9	1328
81.91	1335
81.92	1344
81.93	1353
81.94	1359
81.95	1356
81.96	1339
81.97	1317
81.98	1346
81.99	1321
82.0	1336
82.01	1383
82.02	1348
82.03	1390
82.04	1366
82.05	1367
82.06	1336
82.07	1360
82.08	1380
82.09	1354
82.1	1406
82.11	1411
82.12	1373
82.13	1342
82.14	1371
82.15	1371
82.16	1363
82.17	1387
82.18	1374
82.19	1382
82.2	1417
82.21	1439
82.22	1430
82.23	1408
82.24	1365
82.25	1385
82.26	1393
82.27	1400
82.28	1425
82.29	1410
82.3	1398
82.31	1384
82.32	1392
82.33	1363
82.34	1382
82.35	1406
82.36	1377
82.37	1357
82.38	1374
82.39	1360
82.4	1366
82.41	1339
82.42	1386
82.43	1394
82.44	1369
82.45	1351
82.46	1369
82.47	1378
82.48	1357
82.49	1392
82.5	1405
82.51	1381
82.52	1397
82.53	1364
82.54	1349
82.55	1322
82.56	1314
82.57	1381
82.58	1312
82.59	1320
82.6	1392
82.61	1397
82.62	1348
82.63	1370
82.64	1327
82.65	1323
82.66	1335
82.67	1348
82.68	1328
82.69	1341
82.7	1323
82.71	1345
82.72	1379
82.73	1379
82.74	1366
82.75	1389
82.76	1398
82.77	1366
82.78	1355
82.79	1353
82.8	1333
82.81	1350
82.82	1343
82.83	1338
82.84	1282
82.85	1340
82.86	1353
82.87	1362
82.88	1347
82.89	1343
82.9	1330
82.91	1301
82.92	1315
82.93	1339
82.94	1331
82.95	1327
82.96	1348
82.97	1340
82.98	1326
82.99	1326
83.0	1302
83.01	1340
83.02	1343
83.03	1308
83.04	1370
83.05	1330
83.06	1333
83.07	1361
83.08	1361
83.09	1366
83.1	1310
83.11	1341
83.12	1351
83.13	1304
83.14	1322
83.15	1334
83.16	1322
83.17	1316
83.18	1319
83.19	1288
83.2	1309
83.21	1295
83.22	1304
83.23	1352
83.24	1352
83.25	1305
83.26	1291
83.27	1313
83.28	1339
83.29	1341
83.3	1317
83.31	1310
83.32	1294
83.33	1334
83.34	1320
83.35	1312
83.36	1331
83.37	1321
83.38	1305
83.39	1294
83.4	1284
83.41	1320
83.42	1296
83.43	1313
83.44	1359
83.45	1342
83.46	1337
83.47	1274
83.48	1309
83.49	1329
83.5	1315
83.51	1341
83.52	1333
83.53	1316
83.54	1322
83.55	1316
83.56	1299
83.57	1330
83.58	1334
83.59	1299
83.6	1314
83.61	1325
83.62	1316
83.63	1330
83.64	1295
83.65	1280
83.66	1315
83.67	1293
83.68	1298
83.69	1304
83.7	1332
83.71	1323
83.72	1317
83.73	1326
83.74	1324
83.75	1355
83.76	1361
83.77	1306
83.78	1281
83.79	1304
83.8	1327
83.81	1324
83.82	1308
83.83	1295
83.84	1327
83.85	1311
83.86	1302
83.87	1322
83.88	1365
83.89	1359
83.9	1351
83.91	1299
83.92	1312
83.93	1289
83.94	1275
83.95	1280
83.96	1309
83.97	1328
83.98	1328
83.99	1347
84.0	1368
84.01	1361
84.02	1328
84.03	1304
84.04	1281
84.05	1328
84.06	1342
84.07	1324
84.08	1322
84.09	1380
84.1	1358
84.11	1317
84.12	1328
84.13	1398
84.14	1381
84.15	1338
84.16	1379
84.17	1356
84.18	1328
84.19	1363
84.2	1374
84.21	1362
84.22	1349
84.23	1426
84.24	1428
84.25	1387
84.26	1402
84.27	1392
84.28	1382
84.29	1414
84.3	1351
84.31	1355
84.32	1372
84.33	1401
84.34	1380
84.35	1383
84.36	1354
84.37	1373
84.38	1409
84.39	1409
84.4	1392
84.41	1387
84.42	1398
84.43	1430
84.44	1387
84.45	1414
84.46	1429
84.47	1423
84.48	1444
84.49	1410
84.5	1404
84.51	1417
84.52	1454
84.53	1423
84.54	1453
84.55	1496
84.56	1448
84.57	1438
84.58	1450
84.59	1440
84.6	1449
84.61	1447
84.62	1453
84.63	1468
84.64	1478
84.65	1415
84.66	1402
84.67	1400
84.68	1417
84.69	1405
84.7	1402
84.71	1405
84.72	1436
84.73	1406
84.74	1397
84.75	1394
84.76	1357
84.77	1342
84.78	1377
84.79	1409
84.8	1396
84.81	1394
84.82	1417
84.83	1424
84.84	1412
84.85	1415
84.86	1429
84.87	1394
84.88	1351
84.89	1376
84.9	1357
84.91	1338
84.92	1391
84.93	1380
84.94	1368
84.95	1331
84.96	1415
84.97	1391
84.98	1357
84.99	1361
85.0	1357
85.01	1338
85.02	1352
85.03	1342
85.04	1312
85.05	1301
85.06	1336
85.07	1335
85.08	1331
85.09	1341
85.1	1313
85.11	1349
85.12	1346
85.13	1329
85.14	1316
85.15	1316
85.16	1315
85.17	1325
85.18	1323
85.19	1322
85.2	1327
85.21	1342
85.22	1307
85.23	1345
85.24	1375
85.25	1353
85.26	1338
85.27	1330
85.28	1304
85.29	1314
85.3	1322
85.31	1302
85.32	1301
85.33	1297
85.34	1321
85.35	1324
85.36	1289
85.37	1339
85.38	1329
85.39	1308
85.4	1306
85.41	1283
85.42	1307
85.43	1298
85.44	1284
85.45	1272
85.46	1264
85.47	1314
85.48	1335
85.49	1317
85.5	1310
85.51	1313
85.52	1304
85.53	1301
85.54	1314
85.55	1354
85.56	1309
85.57	1322
85.58	1324
85.59	1315
85.6	1301
85.61	1319
85.62	1334
85.63	1313
85.64	1298
85.65	1300
85.66	1339
85.67	1369
85.68	1332
85.69	1329
85.7	1345
85.71	1345
85.72	1324
85.73	1367
85.74	1437
85.75	1400
85.76	1348
85.77	1368
85.78	1396
85.79	1356
85.8	1349
85.81	1345
85.82	1321
85.83	1334
85.84	1325
85.85	1310
85.86	1342
85.87	1343
85.88	1322
85.89	1280
85.9	1313
85.91	1314
85.92	1342
85.93	1342
85.94	1345
85.95	1335
85.96	1340
85.97	1344
85.98	1362
85.99	1358
86.0	1331
86.01	1317
86.02	1333
86.03	1336
86.04	1307
86.05	1305
86.06	1341
86.07	1359
86.08	1333
86.09	1305
86.1	1338
86.11	1343
86.12	1315
86.13	1310
86.14	1320
86.15	1318
86.16	1303
86.17	1315
86.18	1300
86.19	1284
86.2	1274
86.21	1277
86.22	1291
86.23	1304
86.24	1322
86.25	1308
86.26	1319
86.27	1310
86.28	1299
86.29	1321
86.3	1336
86.31	1324
86.32	1303
86.33	1282
86.34	1309
86.35	1351
86.36	1334
86.37	1289
86.38	1329
86.39	1328
86.4	1306
86.41	1303
86.42	1339
86.43	1336
86.44	1308
86.45	1306
86.46	1321
86.47	1348
86.48	1339
86.49	1313
86.5	1285
86.51	1298
86.52	1318
86.53	1331
86.54	1339
86.55	1326
86.56	1327
86.57	1376
86.58	1349
86.59	1299
86.6	1307
86.61	1351
86.62	1334
86.63	1319
86.64	1299
86.65	1292
86.66	1330
86.67	1359
86.68	1367
86.69	1356
86.7	1379
86.71	1362
86.72	1336
86.73	1293
86.74	1283
86.75	1309
86.76	1337
86.77	1340
86.78	1362
86.79	1345
86.8	1376
86.81	1377
86.82	1355
86.83	1336
86.84	1326
86.85	1313
86.86	1311
86.87	1342
86.88	1350
86.89	1349
86.9	1310
86.91	1298
86.92	1323
86.93	1347
86.94	1354
86.95	1336
86.96	1309
86.97	1312
86.98	1293
86.99	1298
87.0	1331
87.01	1340
87.02	1329
87.03	1338
87.04	1358
87.05	1317
87.06	1336
87.07	1348
87.08	1332
87.09	1328
87.1	1337
87.11	1346
87.12	1366
87.13	1350
87.14	1334
87.15	1332
87.16	1354
87.17	1352
87.18	1352
87.19	1357
87.2	1333
87.21	1361
87.22	1368
87.23	1361
87.24	1371
87.25	1339
87.26	1371
87.27	1387
87.28	1382
87.29	1366
87.3	1375
87.31	1377
87.32	1415
87.33	1435
87.34	1433
87.35	1413
87.36	1433
87.37	1456
87.38	1424
87.39	1417
87.4	1419
87.41	1403
87.42	1421
87.43	1444
87.44	1426
87.45	1410
87.46	1409
87.47	1373
87.48	1320
87.49	1339
87.5	1365
87.51	1403
87.52	1373
87.53	1316
87.54	1349
87.55	1374
87.56	1405
87.57	1407
87.58	1411
87.59	1413
87.6	1399
87.61	1420
87.62	1406
87.63	1391
87.64	1381
87.65	1371
87.66	1387
87.67	1347
87.68	1325
87.69	1344
87.7	1361
87.71	1339
87.72	1336
87.73	1371
87.74	1388
87.75	1351
87.76	1332
87.77	1348
87.78	1378
87.79	1343
87.8	1315
87.81	1311
87.82	1311
87.83	1333
87.84	1317
87.85	1329
87.86	1301
87.87	1278
87.88	1303
87.89	1300
87.9	1334
87.91	1332
87.92	1331
87.93	1341
87.94	1334
87.95	1336
87.96	1343
87.97	1333
87.98	1290
87.99	1295
88.0	1344
88.01	1356
88.02	1337
88.03	1320
88.04	1327
88.05	1340
88.06	1327
88.07	1315
88.08	1319
88.09	1313
88.1	1347
88.11	1394
88.12	1396
88.13	1338
88.14	1293
88.15	1278
88.16	1273
88.17	1285
88.18	1327
88.19	1348
88.2	1324
88.21	1309
88.22	1332
88.23	1356
88.24	1362
88.25	1337
88.26	1341
88.27	1348
88.28	1330
88.29	1298
88.3	1282
88.31	1302
88.32	1317
88.33	1305
88.34	1307
88.35	1342
88.36	1307
88.37	1288
88.38	1296
88.39	1305
88.4	1315
88.41	1301
88.42	1272
88.43	1254
88.44	1271
88.45	1309
88.46	1346
88.47	1349
88.48	1303
88.49	1298
88.5	1320
88.51	1330
88.52	1329
88.53	1363
88.54	1356
88.55	1336
88.56	1309
88.57	1254
88.58	1265
88.59	1291
88.6	1299
88.61	1304
88.62	1290
88.63	1289
88.64	1327
88.65	1318
88.66	1296
88.67	1318
88.68	1341
88.69	1319
88.7	1324
88.71	1343
88.72	1372
88.73	1372
88.74	1341
88.75	1333
88.76	1347
88.77	1341
88.78	1335
88.79	1298
88.8	1295
88.81	1333
88.82	1351
88.83	1328
88.84	1317
88.85	1336
88.86	1359
88.87	1363
88.88	1327
88.89	1324
88.9	1340
88.91	1340
88.92	1354
88.93	1358
88.94	1336
88.95	1354
88.96	1386
88.97	1408
88.98	1409
88.99	1386
89.0	1381
89.01	1371
89.02	1391
89.03	1420
89.04	1425
89.05	1438
89.06	1407
89.07	1414
89.08	1431
89.09	1424
89.1	1414
89.11	1395
89.12	1384
89.13	1376
89.14	1387
89.15	1406
89.16	1394
89.17	1381
89.18	1399
89.19	1388
89.2	1378
89.21	1404
89.22	1403
89.23	1355
89.24	1353
89.25	1367
89.26	1371
89.27	1383
89.28	1390
89.29	1384
89.3	1384
89.31	1399
89.32	1399
89.33	1388
89.34	1351
89.35	1341
89.36	1360
89.37	1378
89.38	1372
89.39	1361
89.4	1365
89.41	1356
89.42	1331
89.43	1323
89.44	1330
89.45	1345
89.46	1342
89.47	1325
89.48	1298
89.49	1289
89.5	1318
89.51	1321
89.52	1310
89.53	1312
89.54	1305
89.55	1299
89.56	1297
89.57	1288
89.58	1306
89.59	1318
89.6	1309
89.61	1311
89.62	1301
89.63	1305
89.64	1326
89.65	1336
89.66	1341
89.67	1355
89.68	1333
89.69	1321
89.7	1326
89.71	1311
89.72	1313
89.73	1333
89.74	1312
89.75	1284
89.76	1284
89.77	1290
89.78	1302
89.79	1293
89.8	1294
89.81	1298
89.82	1321
89.83	1304
89.84	1305
89.85	1312
89.86	1328
89.87	1316
89.88	1310
89.89	1314
89.9	1253
89.91	1248
89.92	1304
89.93	1292
89.94	1279
89.95	1309
89.96	1307
89.97	1304
89.98	1323
89.99	1320
90.0	1289
90.01	1278
90.02	1308
90.03	1313
90.04	1315
90.05	1318
90.06	1326
90.07	1303
90.08	1301
90.09	1322
90.1	1306
90.11	1300
90.12	1321
90.13	1323
90.14	1303
90.15	1289
90.16	1289
90.17	1280
90.18	1300
90.19	1319
90.2	1291
90.21	1289
90.22	1307
90.23	1313
90.24	1284
90.25	1294
90.26	1305
90.27	1301
90.28	1284
90.29	1298
90.3	1305
90.31	1272
90.32	1259
90.33	1263
90.34	1270
90.35	1291
90.36	1307
90.37	1285
90.38	1256
90.39	1287
90.4	1284
90.41	1265
90.42	1262
90.43	1243
90.44	1256
90.45	1270
90.46	1285
90.47	1305
90.48	1286
90.49	1253
90.5	1275
90.51	1316
90.52	1299
90.53	1272
90.54	1282
90.55	1273
90.56	1250
90.57	1262
90.58	1268
90.59	1258
90.6	1257
90.61	1272
90.62	1283
90.63	1296
90.64	1276
90.65	1269
90.66	1297
90.67	1266
90.68	1252
90.69	1294
90.7	1303
90.71	1312
90.72	1330
90.73	1304
90.74	1291
90.75	1277
90.76	1254
90.77	1252
90.78	1253
90.79	1254
90.8	1264
90.81	1289
90.82	1308
90.83	1312
90.84	1311
90.85	1302
90.86	1302
90.87	1312
90.88	1290
90.89	1280
90.9	1282
90.91	1247
90.92	1230
90.93	1264
90.94	1302
90.95	1327
90.96	1307
90.97	1266
90.98	1272
90.99	1277
91.0	1272
91.01	1293
91.02	1295
91.03	1285
91.04	1277
91.05	1266
91.06	1278
91.07	1301
91.08	1290
91.09	1271
91.1	1278
91.11	1281
91.12	1269
91.13	1256
91.14	1265
91.15	1285
91.16	1282
91.17	1281
91.18	1295
91.19	1292
91.2	1289
91.21	1305
91.22	1296
91.23	1277
91.24	1268
91.25	1276
91.26	1297
91.27	1286
91.28	1274
91.29	1288
91.3	1298
91.31	1283
91.32	1252
91.33	1254
91.34	1282
91.35	1278
91.36	1258
91.37	1267
91.38	1276
91.39	1284
91.4	1289
91.41	1271
91.42	1271
91.43	1300
91.44	1309
91.45	1286
91.46	1280
91.47	1290
91.48	1298
91.49	1293
91.5	1279
91.51	1277
91.52	1262
91.53	1245
91.54	1278
91.55	1303
91.56	1284
91.57	1272
91.58	1290
91.59	1296
91.6	1278
91.61	1283
91.62	1317
91.63	1313
91.64	1282
91.65	1264
91.66	1268
91.67	1258
91.68	1271
91.69	1310
91.7	1306
91.71	1283
91.72	1283
91.73	1297
91.74	1306
91.75	1306
91.76	1292
91.77	1313
91.78	1307
91.79	1268
91.8	1253
91.81	1262
91.82	1288
91.83	1306
91.84	1300
91.85	1297
91.86	1315
91.87	1311
91.88	1307
91.89	1303
91.9	1288
91.91	1288
91.92	1296
91.93	1281
91.94	1268
91.95	1276
91.96	1275
91.97	1288
91.98	1286
91.99	1282
92.0	1276
92.01	1259
92.02	1253
92.03	1260
92.04	1280
92.05	1308
92.06	1307
92.07	1284
92.08	1275
92.09	1258
92.1	1244
92.11	1283
92.12	1325
92.13	1296
92.14	1280
92.15	1280
92.16	1256
92.17	1268
92.18	1266
92.19	1257
92.2	1267
92.21	1283
92.22	1297
92.23	1281
92.24	1268
92.25	1271
92.26	1283
92.27	1272
92.28	1265
92.29	1309
92.3	1343
92.31	1315
92.32	1295
92.33	1280
92.34	1282
92.35	1293
92.36	1286
92.37	1272
92.38	1270
92.39	1271
92.4	1259
92.41	1290
92.42	1289
92.43	1263
92.44	1266
92.45	1262
92.46	1260
92.47	1298
92.48	1330
92.49	1329
92.5	1341
92.51	1327
92.52	1272
92.53	1278
92.54	1316
92.55	1313
92.56	1304
92.57	1280
92.58	1287
92.59	1289
92.6	1293
92.61	1323
92.62	1334
92.63	1300
92.64	1280
92.65	1302
92.66	1335
92.67	1327
92.68	1302
92.69	1308
92.7	1326
92.71	1326
92.72	1309
92.73	1309
92.74	1327
92.75	1330
92.76	1342
92.77	1333
92.78	1313
92.79	1326
92.8	1342
92.81	1353
92.82	1323
92.83	1301
92.84	1305
92.85	1313
92.86	1295
92.87	1289
92.88	1308
92.89	1317
92.9	1333
92.91	1354
92.92	1348
92.93	1313
92.94	1295
92.95	1330
92.96	1325
92.97	1319
92.98	1348
92.99	1359
93.0	1308
93.01	1268
93.02	1318
93.03	1322
93.04	1308
93.05	1306
93.06	1312
93.07	1317
93.08	1292
93.09	1297
93.1	1305
93.11	1318
93.12	1335
93.13	1301
93.14	1292
93.15	1318
93.16	1323
93.17	1335
93.18	1324
93.19	1302
93.2	1310
93.21	1306
93.22	1266
93.23	1267
93.24	1270
93.25	1286
93.26	1280
93.27	1272
93.28	1290
93.29	1303
93.3	1317
93.31	1314
93.32	1272
93.33	1244
93.34	1266
93.35	1286
93.36	1280
93.37	1271
93.38	1261
93.39	1249
93.4	1260
93.41	1275
93.42	1270
93.43	1277
93.44	1283
93.45	1283
93.46	1260
93.47	1239
93.48	1248
93.49	1253
93.5	1267
93.51	1292
93.52	1301
93.53	1283
93.54	1258
93.55	1275
93.56	1315
93.57	1306
93.58	1279
93.59	1266
93.6	1222
93.61	1235
93.62	1291
93.63	1303
93.64	1282
93.65	1323
93.66	1336
93.67	1315
93.68	1308
93.69	1333
93.7	1333
93.71	1317
93.72	1306
93.73	1279
93.74	1281
93.75	1288
93.76	1273
93.77	1260
93.78	1261
93.79	1281
93.8	1317
93.81	1280
93.82	1249
93.83	1280
93.84	1286
93.85	1252
93.86	1259
93.87	1289
93.88	1303
93.89	1284
93.9	1269
93.91	1269
93.92	1260
93.93	1250
93.94	1251
93.95	1246
93.96	1263
93.97	1282
93.98	1296
93.99	1298
94.0	1294
94.01	1285
94.02	1289
94.03	1272
94.04	1247
94.05	1269
94.06	1302
94.07	1293
94.08	1270
94.09	1299
94.1	1320
94.11	1280
94.12	1243
94.13	1257
94.14	1244
94.15	1238
94.16	1242
94.17	1245
94.18	1258
94.19	1254
94.2	1264
94.21	1279
94.22	1279
94.23	1267
94.24	1240
94.25	1232
94.26	1274
94.27	1291
94.28	1283
94.29	1283
94.3	1288
94.31	1323
94.32	1323
94.33	1271
94.34	1252
94.35	1283
94.36	1293
94.37	1270
94.38	1275
94.39	1281
94.4	1291
94.41	1290
94.42	1273
94.43	1266
94.44	1287
94.45	1269
94.46	1267
94.47	1286
94.48	1276
94.49	1297
94.5	1292
94.51	1294
94.52	1298
94.53	1261
94.54	1295
94.55	1285
94.56	1259
94.57	1241
94.58	1230
94.59	1259
94.6	1275
94.61	1258
94.62	1264
94.63	1273
94.64	1250
94.65	1243
94.66	1271
94.67	1268
94.68	1268
94.69	1260
94.7	1271
94.71	1291
94.72	1288
94.73	1265
94.74	1251
94.75	1255
94.76	1279
94.77	1308
94.78	1302
94.79	1287
94.8	1298
94.81	1300
94.82	1294
94.83	1311
94.84	1321
94.85	1294
94.86	1295
94.87	1315
94.88	1303
94.89	1289
94.9	1278
94.91	1289
94.92	1319
94.93	1302
94.94	1300
94.95	1287
94.96	1304
94.97	1296
94.98	1262
94.99	1236
95.0	1252
95.01	1288
95.02	1304
95.03	1281
95.04	1278
95.05	1294
95.06	1281
95.07	1275
95.08	1293
95.09	1324
95.1	1286
95.11	1287
95.12	1308
95.13	1340
95.14	1340
95.15	1313
95.16	1315
95.17	1341
95.18	1347
95.19	1301
95.2	1315
95.21	1316
95.22	1287
95.23	1285
95.24	1294
95.25	1308
95.26	1310
95.27	1317
95.28	1306
95.29	1298
95.3	1337
95.31	1334
95.32	1321
95.33	1306
95.34	1271
95.35	1281
95.36	1276
95.37	1302
95.38	1308
95.39	1307
95.4	1302
95.41	1295
95.42	1308
95.43	1322
95.44	1326
95.45	1309
95.46	1302
95.47	1307
95.48	1304
95.49	1292
95.5	1269
95.51	1278
95.52	1281
95.53	1282
95.54	1302
95.55	1296
95.56	1300
95.57	1309
95.58	1312
95.59	1305
95.6	1317
95.61	1319
95.62	1320
95.63	1303
95.64	1317
95.65	1316
95.66	1326
95.67	1301
95.68	1261
95.69	1264
95.7	1287
95.71	1272
95.72	1289
95.73	1310
95.74	1286
95.75	1288
95.76	1288
95.77	1317
95.78	1293
95.79	1303
95.8	1283
95.81	1274
95.82	1290
95.83	1289
95.84	1290
95.85	1260
95.86	1292
95.87	1307
95.88	1312
95.89	1320
95.9	1307
95.91	1294
95.92	1301
95.93	1303
95.94	1281
95.95	1292
95.96	1284
95.97	1298
95.98	1302
95.99	1318
96.0	1302
96.01	1317
96.02	1286
96.03	1289
96.04	1297
96.05	1284
96.06	1302
96.07	1302
96.08	1291
96.09	1309
96.1	1301
96.11	1259
96.12	1257
96.13	1293
96.14	1276
96.15	1289
96.16	1283
96.17	1304
96.18	1284
96.19	1307
96.2	1330
96.21	1327
96.22	1345
96.23	1344
96.24	1274
96.25	1228
96.26	1233
96.27	1261
96.28	1244
96.29	1285
96.3	1337
96.31	1311
96.32	1305
96.33	1292
96.34	1296
96.35	1296
96.36	1275
96.37	1284
96.38	1282
96.39	1327
96.4	1329
96.41	1302
96.42	1286
96.43	1291
96.44	1259
96.45	1272
96.46	1281
96.47	1280
96.48	1270
96.49	1277
96.5	1303
96.51	1314
96.52	1276
96.53	1264
96.54	1297
96.55	1310
96.56	1284
96.57	1259
96.58	1265
96.59	1245
96.6	1273
96.61	1300
96.62	1266
96.63	1289
96.64	1279
96.65	1271
96.66	1290
96.67	1308
96.68	1315
96.69	1298
96.7	1294
96.71	1292
96.72	1282
96.73	1286
96.74	1284
96.75	1289
96.76	1313
96.77	1273
96.78	1289
96.79	1309
96.8	1310
96.81	1290
96.82	1276
96.83	1281
96.84	1293
96.85	1317
96.86	1307
96.87	1297
96.88	1305
96.89	1311
96.9	1286
96.91	1291
96.92	1332
96.93	1333
96.94	1272
96.95	1247
96.96	1294
96.97	1281
96.98	1284
96.99	1321
97.0	1325
97.01	1292
97.02	1334
97.03	1276
97.04	1296
97.05	1307
97.06	1311
97.07	1276
97.08	1275
97.09	1308
97.1	1355
97.11	1318
97.12	1306
97.13	1288
97.14	1285
97.15	1328
97.16	1347
97.17	1324
97.18	1299
97.19	1277
97.2	1298
97.21	1310
97.22	1329
97.23	1291
97.24	1251
97.25	1292
97.26	1316
97.27	1328
97.28	1308
97.29	1305
97.3	1287
97.31	1291
97.32	1325
97.33	1338
97.34	1330
97.35	1300
97.36	1297
97.37	1334
97.38	1331
97.39	1308
97.4	1358
97.41	1318
97.42	1329
97.43	1325
97.44	1317
97.45	1290
97.46	1305
97.47	1274
97.48	1302
97.49	1303
97.5	1281
97.51	1274
97.52	1291
97.53	1297
97.54	1309
97.55	1293
97.56	1290
97.57	1308
97.58	1299
97.59	1287
97.6	1300
97.61	1296
97.62	1308
97.63	1256
97.64	1249
97.65	1286
97.66	1285
97.67	1260
97.68	1311
97.69	1293
97.7	1325
97.71	1297
97.72	1314
97.73	1341
97.74	1363
97.75	1340
97.76	1286
97.77	1279
97.78	1312
97.79	1308
97.8	1290
97.81	1304
97.82	1277
97.83	1271
97.84	1287
97.85	1320
97.86	1324
97.87	1305
97.88	1348
97.89	1306
97.9	1319
97.91	1298
97.92	1290
97.93	1275
97.94	1283
97.95	1253
97.96	1230
97.97	1275
97.98	1311
97.99	1321
98.0	1306
98.01	1275
98.02	1299
98.03	1303
98.04	1293
98.05	1295
98.06	1262
98.07	1302
98.08	1326
98.09	1338
98.1	1364
98.11	1369
98.12	1353
98.13	1320
98.14	1329
98.15	1316
98.16	1305
98.17	1278
98.18	1293
98.19	1329
98.2	1324
98.21	1313
98.22	1300
98.23	1312
98.24	1333
98.25	1286
98.26	1304
98.27	1322
98.28	1291
98.29	1308
98.3	1326
98.31	1328
98.32	1355
98.33	1379
98.34	1342
98.35	1302
98.36	1310
98.37	1325
98.38	1374
98.39	1345
98.4	1372
98.41	1343
98.42	1325
98.43	1369
98.44	1358
98.45	1344
98.46	1366
98.47	1378
98.48	1397
98.49	1354
98.5	1345
98.51	1353
98.52	1368
98.53	1322
98.54	1329
98.55	1363
98.56	1372
98.57	1352
98.58	1349
98.59	1360
98.6	1358
98.61	1315
98.62	1307
98.63	1325
98.64	1363
98.65	1373
98.66	1360
98.67	1378
98.68	1349
98.69	1367
98.7	1371
98.71	1343
98.72	1336
98.73	1340
98.74	1353
98.75	1360
98.76	1367
98.77	1357
98.78	1386
98.79	1364
98.8	1368
98.81	1377
98.82	1337
98.83	1352
98.84	1367
98.85	1349
98.86	1333
98.87	1302
98.88	1344
98.89	1355
98.9	1374
98.91	1357
98.92	1345
98.93	1334
98.94	1359
98.95	1372
98.96	1343
98.97	1325
98.98	1338
98.99	1352
99.0	1361
99.01	1379
99.02	1370
99.03	1349
99.04	1373
99.05	1390
99.06	1379
99.07	1347
99.08	1367
99.09	1333
99.1	1312
99.11	1335
99.12	1372
99.13	1357
99.14	1305
99.15	1241
99.16	1254
99.17	1340
99.18	1297
99.19	1287
99.2	1320
99.21	1313
99.22	1329
99.23	1339
99.24	1365
99.25	1339
99.26	1319
99.27	1324
99.28	1349
99.29	1354
99.3	1320
99.31	1314
99.32	1340
99.33	1310
99.34	1328
99.35	1269
99.36	1309
99.37	1287
99.38	1290
99.39	1236
99.4	1306
99.41	1314
99.42	1320
99.43	1335
99.44	1311
99.45	1327
99.46	1293
99.47	1297
99.48	1335
99.49	1332
99.5	1268
99.51	1298
99.52	1308
99.53	1323
99.54	1353
99.55	1384
99.56	1371
99.57	1310
99.58	1300
99.59	1329
99.6	1318
99.61	1305
99.62	1324
99.63	1317
99.64	1315
99.65	1317
99.66	1347
99.67	1339
99.68	1332
99.69	1313
99.7	1283
99.71	1311
99.72	1315
99.73	1306
99.74	1288
99.75	1304
99.76	1286
99.77	1291
99.78	1329
99.79	1279
99.8	1290
99.81	1304
99.82	1368
99.83	1348
99.84	1295
99.85	1299
99.86	1339
99.87	1359
99.88	1324
99.89	1314
99.9	1350
99.91	1354
99.92	1311
99.93	1303
99.94	1373
99.95	1361
99.96	1356
99.97	1355
99.98	1362
99.99	1350
100.0	1325
