Single_LiMn2O4_long_
Wavelength = 1.54059 Ã… (Cu)
10.0	4834
10.01	4873
10.02	4868
10.03	4866
10.04	4856
10.05	4898
10.06	4930
10.07	5002
10.08	5026
10.09	4946
10.1	4946
10.11	4986
10.12	5056
10.13	4948
10.14	4942
10.15	5108
10.16	5033
10.17	5023
10.18	5026
10.19	4978
10.2	4904
10.21	4911
10.22	4959
10.23	5062
10.24	5084
10.25	5024
10.26	5075
10.27	4957
10.28	5021
10.29	5140
10.3	5088
10.31	5128
10.32	5073
10.33	5143
10.34	5087
10.35	5140
10.36	5179
10.37	5207
10.38	5227
10.39	5187
10.4	5222
10.41	5204
10.42	5231
10.43	5260
10.44	5221
10.45	5179
10.46	5211
10.47	5211
10.48	5239
10.49	5248
10.5	5211
10.51	5190
10.52	5328
10.53	5279
10.54	5203
10.55	5239
10.56	5211
10.57	5287
10.58	5272
10.59	5324
10.6	5299
10.61	5392
10.62	5369
10.63	5370
10.64	5420
10.65	5315
10.66	5306
10.67	5292
10.68	5318
10.69	5380
10.7	5367
10.71	5343
10.72	5469
10.73	5483
10.74	5402
10.75	5403
10.76	5471
10.77	5428
10.78	5470
10.79	5439
10.8	5469
10.81	5552
10.82	5525
10.83	5447
10.84	5515
10.85	5498
10.86	5429
10.87	5475
10.88	5548
10.89	5590
10.9	5556
10.91	5468
10.92	5475
10.93	5563
10.94	5554
10.95	5668
10.96	5622
10.97	5570
10.98	5711
10.99	5755
11.0	5650
11.01	5621
11.02	5599
11.03	5709
11.04	5711
11.05	5626
11.06	5675
11.07	5754
11.08	5703
11.09	5664
11.1	5710
11.11	5718
11.12	5759
11.13	5731
11.14	5686
11.15	5697
11.16	5799
11.17	5745
11.18	5701
11.19	5794
11.2	5754
11.21	5763
11.22	5849
11.23	5781
11.24	5793
11.25	5834
11.26	5847
11.27	5872
11.28	5858
11.29	5864
11.3	5895
11.31	5940
11.32	5935
11.33	5899
11.34	5895
11.35	5910
11.36	5989
11.37	5977
11.38	5971
11.39	5945
11.4	5911
11.41	5939
11.42	6027
11.43	6008
11.44	5997
11.45	6052
11.46	6037
11.47	6081
11.48	6120
11.49	6129
11.5	6042
11.51	6091
11.52	6114
11.53	6024
11.54	6038
11.55	6035
11.56	6065
11.57	6203
11.58	6191
11.59	6190
11.6	6053
11.61	6129
11.62	6136
11.63	6095
11.64	6082
11.65	6209
11.66	6287
11.67	6259
11.68	6206
11.69	6185
11.7	6239
11.71	6214
11.72	6142
11.73	6229
11.74	6327
11.75	6342
11.76	6330
11.77	6343
11.78	6372
11.79	6308
11.8	6250
11.81	6339
11.82	6446
11.83	6410
11.84	6331
11.85	6237
11.86	6241
11.87	6327
11.88	6292
11.89	6299
11.9	6293
11.91	6354
11.92	6427
11.93	6466
11.94	6418
11.95	6441
11.96	6502
11.97	6463
11.98	6405
11.99	6382
12.0	6557
12.01	6432
12.02	6484
12.03	6480
12.04	6546
12.05	6506
12.06	6556
12.07	6587
12.08	6654
12.09	6624
12.1	6561
12.11	6585
12.12	6607
12.13	6631
12.14	6590
12.15	6657
12.16	6643
12.17	6629
12.18	6652
12.19	6633
12.2	6709
12.21	6669
12.22	6587
12.23	6720
12.24	6762
12.25	6808
12.26	6632
12.27	6740
12.28	6837
12.29	6814
12.3	6742
12.31	6863
12.32	6896
12.33	6876
12.34	6885
12.35	6866
12.36	6879
12.37	6816
12.38	6867
12.39	6877
12.4	6885
12.41	6916
12.42	6914
12.43	6981
12.44	7043
12.45	6970
12.46	6959
12.47	7088
12.48	7070
12.49	7046
12.5	7022
12.51	7097
12.52	7124
12.53	7095
12.54	7104
12.55	7104
12.56	7201
12.57	7191
12.58	7194
12.59	7145
12.6	7169
12.61	7290
12.62	7334
12.63	7301
12.64	7361
12.65	7329
12.66	7354
12.67	7280
12.68	7358
12.69	7329
12.7	7410
12.71	7452
12.72	7432
12.73	7366
12.74	7469
12.75	7544
12.76	7553
12.77	7612
12.78	7611
12.79	7739
12.8	7692
12.81	7745
12.82	7645
12.83	7671
12.84	7805
12.85	7660
12.86	7758
12.87	7676
12.88	7806
12.89	7851
12.9	7791
12.91	7884
12.92	7834
12.93	7897
12.94	7958
12.95	7939
12.96	7961
12.97	7991
12.98	7998
12.99	8144
13.0	8155
13.01	8170
13.02	8223
13.03	8394
13.04	8328
13.05	8278
13.06	8252
13.07	8401
13.08	8440
13.09	8452
13.1	8440
13.11	8496
13.12	8437
13.13	8526
13.14	8587
13.15	8644
13.16	8671
13.17	8795
13.18	8867
13.19	8878
13.2	8876
13.21	8801
13.22	8887
13.23	8987
13.24	8951
13.25	9011
13.26	9038
13.27	9099
13.28	9062
13.29	9132
13.3	9187
13.31	9227
13.32	9305
13.33	9286
13.34	9288
13.35	9465
13.36	9417
13.37	9477
13.38	9578
13.39	9651
13.4	9621
13.41	9657
13.42	9758
13.43	9753
13.44	9836
13.45	9843
13.46	9929
13.47	10000
13.48	9934
13.49	9984
13.5	10071
13.51	10138
13.52	10116
13.53	10165
13.54	10168
13.55	10144
13.56	10284
13.57	10379
13.58	10450
13.59	10435
13.6	10464
13.61	10576
13.62	10648
13.63	10621
13.64	10708
13.65	10719
13.66	10768
13.67	10809
13.68	10920
13.69	10978
13.7	10915
13.71	11027
13.72	11044
13.73	11058
13.74	11060
13.75	11158
13.76	11315
13.77	11245
13.78	11283
13.79	11295
13.8	11321
13.81	11400
13.82	11475
13.83	11590
13.84	11739
13.85	11752
13.86	11727
13.87	11800
13.88	11863
13.89	11823
13.9	11752
13.91	11884
13.92	11879
13.93	11959
13.94	12040
13.95	12150
13.96	12156
13.97	12075
13.98	12118
13.99	12090
14.0	12150
14.01	12280
14.02	12328
14.03	12452
14.04	12408
14.05	12430
14.06	12432
14.07	12583
14.08	12641
14.09	12614
14.1	12636
14.11	12650
14.12	12710
14.13	12679
14.14	12685
14.15	12800
14.16	12794
14.17	12859
14.18	12943
14.19	12966
14.2	13056
14.21	12992
14.22	12935
14.23	13056
14.24	13125
14.25	13199
14.26	13254
14.27	13154
14.28	13204
14.29	13256
14.3	13311
14.31	13210
14.32	13285
14.33	13325
14.34	13369
14.35	13420
14.36	13555
14.37	13533
14.38	13469
14.39	13480
14.4	13535
14.41	13626
14.42	13628
14.43	13590
14.44	13585
14.45	13494
14.46	13592
14.47	13684
14.48	13742
14.49	13672
14.5	13553
14.51	13666
14.52	13710
14.53	13707
14.54	13727
14.55	13707
14.56	13690
14.57	13781
14.58	13839
14.59	13783
14.6	13834
14.61	13853
14.62	13889
14.63	13790
14.64	13762
14.65	13816
14.66	13848
14.67	13883
14.68	13871
14.69	14031
14.7	14042
14.71	13933
14.72	13882
14.73	13782
14.74	13916
14.75	13848
14.76	13768
14.77	13724
14.78	13826
14.79	13971
14.8	13971
14.81	13893
14.82	13984
14.83	13978
14.84	13872
14.85	13870
14.86	13954
14.87	13880
14.88	13901
14.89	13954
14.9	13888
14.91	13941
14.92	14018
14.93	13894
14.94	13836
14.95	13940
14.96	13849
14.97	13774
14.98	13813
14.99	13843
15.0	13923
15.01	13811
15.02	13788
15.03	13860
15.04	13794
15.05	13872
15.06	13753
15.07	13681
15.08	13733
15.09	13696
15.1	13746
15.11	13725
15.12	13709
15.13	13726
15.14	13752
15.15	13747
15.16	13846
15.17	13709
15.18	13645
15.19	13598
15.2	13596
15.21	13603
15.22	13711
15.23	13629
15.24	13519
15.25	13605
15.26	13665
15.27	13561
15.28	13526
15.29	13459
15.3	13454
15.31	13487
15.32	13479
15.33	13569
15.34	13545
15.35	13452
15.36	13436
15.37	13474
15.38	13441
15.39	13472
15.4	13477
15.41	13461
15.42	13483
15.43	13431
15.44	13321
15.45	13332
15.46	13348
15.47	13289
15.48	13236
15.49	13205
15.5	13250
15.51	13370
15.52	13368
15.53	13270
15.54	13306
15.55	13263
15.56	13198
15.57	13172
15.58	13299
15.59	13307
15.6	13269
15.61	13256
15.62	13291
15.63	13224
15.64	13216
15.65	13183
15.66	13061
15.67	13111
15.68	13167
15.69	13135
15.7	13114
15.71	13078
15.72	12970
15.73	12960
15.74	13085
15.75	13068
15.76	13042
15.77	13052
15.78	12980
15.79	12994
15.8	13031
15.81	13017
15.82	12990
15.83	12967
15.84	12937
15.85	12854
15.86	12891
15.87	12908
15.88	12905
15.89	12948
15.9	12999
15.91	12987
15.92	12895
15.93	12850
15.94	12824
15.95	12820
15.96	12847
15.97	12859
15.98	12909
15.99	12944
16.0	12875
16.01	12819
16.02	12797
16.03	12867
16.04	12985
16.05	12958
16.06	12939
16.07	12901
16.08	12943
16.09	12897
16.1	12814
16.11	12924
16.12	12976
16.13	12886
16.14	12788
16.15	12760
16.16	12762
16.17	12749
16.18	12807
16.19	12793
16.2	12730
16.21	12755
16.22	12633
16.23	12659
16.24	12801
16.25	12890
16.26	12888
16.27	12731
16.28	12753
16.29	12804
16.3	12739
16.31	12705
16.32	12777
16.33	12789
16.34	12698
16.35	12637
16.36	12627
16.37	12715
16.38	12809
16.39	12741
16.4	12702
16.41	12743
16.42	12758
16.43	12758
16.44	12731
16.45	12698
16.46	12618
16.47	12668
16.48	12717
16.49	12792
16.5	12740
16.51	12763
16.52	12724
16.53	12707
16.54	12770
16.55	12787
16.56	12760
16.57	12726
16.58	12751
16.59	12745
16.6	12731
16.61	12773
16.62	12777
16.63	12724
16.64	12699
16.65	12786
16.66	12810
16.67	12750
16.68	12789
16.69	12790
16.7	12741
16.71	12732
16.72	12802
16.73	12784
16.74	12774
16.75	12799
16.76	12837
16.77	12915
16.78	12928
16.79	12798
16.8	12758
16.81	12819
16.82	12759
16.83	12774
16.84	12829
16.85	12762
16.86	12724
16.87	12753
16.88	12790
16.89	12890
16.9	12895
16.91	12869
16.92	12874
16.93	12857
16.94	12835
16.95	12812
16.96	12821
16.97	12879
16.98	12877
16.99	12854
17.0	12867
17.01	12909
17.02	12860
17.03	12812
17.04	12841
17.05	12868
17.06	12879
17.07	12860
17.08	12870
17.09	12843
17.1	12859
17.11	12923
17.12	12993
17.13	13023
17.14	12955
17.15	12956
17.16	12904
17.17	12869
17.18	12964
17.19	13019
17.2	13013
17.21	12970
17.22	12926
17.23	12973
17.24	13019
17.25	12997
17.26	12967
17.27	12946
17.28	12898
17.29	12846
17.3	12870
17.31	12926
17.32	12859
17.33	12827
17.34	12917
17.35	12984
17.36	12982
17.37	12921
17.38	12920
17.39	12944
17.4	12959
17.41	13082
17.42	13067
17.43	12893
17.44	12854
17.45	12957
17.46	13081
17.47	13123
17.48	13131
17.49	13092
17.5	12985
17.51	12896
17.52	12951
17.53	13022
17.54	13031
17.55	13085
17.56	13050
17.57	12977
17.58	12988
17.59	13001
17.6	13020
17.61	13048
17.62	12979
17.63	12924
17.64	13039
17.65	13134
17.66	13169
17.67	13219
17.68	13194
17.69	13161
17.7	13140
17.71	13140
17.72	13154
17.73	13113
17.74	13116
17.75	13074
17.76	12989
17.77	13028
17.78	13095
17.79	13129
17.8	13139
17.81	13111
17.82	13117
17.83	13193
17.84	13230
17.85	13153
17.86	13061
17.87	13126
17.88	13255
17.89	13197
17.9	13216
17.91	13311
17.92	13228
17.93	13201
17.94	13291
17.95	13329
17.96	13341
17.97	13296
17.98	13247
17.99	13222
18.0	13209
18.01	13195
18.02	13217
18.03	13211
18.04	13188
18.05	13230
18.06	13266
18.07	13224
18.08	13189
18.09	13241
18.1	13346
18.11	13408
18.12	13362
18.13	13346
18.14	13310
18.15	13220
18.16	13242
18.17	13224
18.18	13241
18.19	13287
18.2	13380
18.21	13364
18.22	13268
18.23	13329
18.24	13343
18.25	13324
18.26	13312
18.27	13342
18.28	13386
18.29	13423
18.3	13362
18.31	13289
18.32	13321
18.33	13408
18.34	13392
18.35	13311
18.36	13313
18.37	13282
18.38	13286
18.39	13327
18.4	13360
18.41	13498
18.42	13512
18.43	13414
18.44	13430
18.45	13483
18.46	13484
18.47	13456
18.48	13508
18.49	13603
18.5	13599
18.51	13589
18.52	13538
18.53	13544
18.54	13722
18.55	13851
18.56	13948
18.57	14045
18.58	14059
18.59	14161
18.6	14301
18.61	14501
18.62	14617
18.63	14738
18.64	15061
18.65	15256
18.66	15268
18.67	15415
18.68	15655
18.69	15961
18.7	16124
18.71	16018
18.72	15855
18.73	15694
18.74	15428
18.75	15056
18.76	14873
18.77	14755
18.78	14564
18.79	14432
18.8	14311
18.81	14014
18.82	13801
18.83	13634
18.84	13625
18.85	13682
18.86	13609
18.87	13439
18.88	13415
18.89	13526
18.9	13573
18.91	13488
18.92	13418
18.93	13349
18.94	13333
18.95	13398
18.96	13433
18.97	13345
18.98	13343
18.99	13404
19.0	13404
19.01	13431
19.02	13439
19.03	13449
19.04	13375
19.05	13337
19.06	13532
19.07	13549
19.08	13450
19.09	13439
19.1	13527
19.11	13493
19.12	13421
19.13	13437
19.14	13355
19.15	13258
19.16	13273
19.17	13296
19.18	13390
19.19	13402
19.2	13311
19.21	13349
19.22	13299
19.23	13263
19.24	13275
19.25	13331
19.26	13409
19.27	13401
19.28	13305
19.29	13318
19.3	13388
19.31	13352
19.32	13294
19.33	13216
19.34	13263
19.35	13329
19.36	13285
19.37	13242
19.38	13363
19.39	13391
19.4	13326
19.41	13290
19.42	13384
19.43	13300
19.44	13125
19.45	13201
19.46	13325
19.47	13332
19.48	13337
19.49	13323
19.5	13235
19.51	13295
19.52	13334
19.53	13270
19.54	13283
19.55	13307
19.56	13242
19.57	13238
19.58	13299
19.59	13371
19.6	13326
19.61	13310
19.62	13262
19.63	13258
19.64	13197
19.65	13314
19.66	13314
19.67	13338
19.68	13266
19.69	13255
19.7	13255
19.71	13151
19.72	13118
19.73	13250
19.74	13345
19.75	13354
19.76	13317
19.77	13311
19.78	13291
19.79	13293
19.8	13233
19.81	13358
19.82	13458
19.83	13272
19.84	13146
19.85	13179
19.86	13281
19.87	13351
19.88	13290
19.89	13251
19.9	13333
19.91	13383
19.92	13266
19.93	13148
19.94	13111
19.95	13150
19.96	13242
19.97	13240
19.98	13264
19.99	13276
20.0	13322
20.01	13260
20.02	13153
20.03	13257
20.04	13304
20.05	13235
20.06	13254
20.07	13185
20.08	13255
20.09	13277
20.1	13111
20.11	13134
20.12	13159
20.13	13192
20.14	13285
20.15	13232
20.16	13262
20.17	13254
20.18	13143
20.19	13205
20.2	13292
20.21	13294
20.22	13302
20.23	13253
20.24	13149
20.25	13174
20.26	13339
20.27	13300
20.28	13301
20.29	13134
20.3	13188
20.31	13233
20.32	13204
20.33	13214
20.34	13257
20.35	13318
20.36	13290
20.37	13240
20.38	13272
20.39	13210
20.4	13194
20.41	13302
20.42	13247
20.43	13176
20.44	13214
20.45	13275
20.46	13322
20.47	13279
20.48	13187
20.49	13277
20.5	13318
20.51	13259
20.52	13206
20.53	13226
20.54	13199
20.55	13341
20.56	13448
20.57	13419
20.58	13370
20.59	13483
20.6	13464
20.61	13370
20.62	13379
20.63	13392
20.64	13406
20.65	13442
20.66	13495
20.67	13371
20.68	13397
20.69	13372
20.7	13397
20.71	13515
20.72	13480
20.73	13612
20.74	13596
20.75	13594
20.76	13588
20.77	13598
20.78	13487
20.79	13400
20.8	13493
20.81	13595
20.82	13625
20.83	13652
20.84	13607
20.85	13563
20.86	13404
20.87	13494
20.88	13563
20.89	13642
20.9	13570
20.91	13720
20.92	13825
20.93	13714
20.94	13585
20.95	13729
20.96	13684
20.97	13689
20.98	13674
20.99	13741
21.0	13680
21.01	13696
21.02	13741
21.03	13773
21.04	13858
21.05	13772
21.06	13697
21.07	13890
21.08	13765
21.09	13697
21.1	13794
21.11	13852
21.12	13848
21.13	13799
21.14	13900
21.15	13882
21.16	13974
21.17	14021
21.18	14037
21.19	14032
21.2	14059
21.21	13977
21.22	13868
21.23	13955
21.24	14059
21.25	14058
21.26	14149
21.27	14208
21.28	14196
21.29	14067
21.3	14098
21.31	14041
21.32	13949
21.33	14043
21.34	14123
21.35	14194
21.36	14217
21.37	14187
21.38	14253
21.39	14231
21.4	14221
21.41	14349
21.42	14334
21.43	14346
21.44	14367
21.45	14313
21.46	14269
21.47	14274
21.48	14327
21.49	14448
21.5	14424
21.51	14293
21.52	14358
21.53	14400
21.54	14427
21.55	14544
21.56	14505
21.57	14413
21.58	14363
21.59	14452
21.6	14413
21.61	14390
21.62	14489
21.63	14517
21.64	14383
21.65	14269
21.66	14365
21.67	14509
21.68	14493
21.69	14378
21.7	14280
21.71	14259
21.72	14346
21.73	14451
21.74	14409
21.75	14361
21.76	14411
21.77	14331
21.78	14441
21.79	14477
21.8	14409
21.81	14333
21.82	14474
21.83	14569
21.84	14408
21.85	14352
21.86	14329
21.87	14270
21.88	14437
21.89	14464
21.9	14313
21.91	14326
21.92	14170
21.93	14207
21.94	14283
21.95	14268
21.96	14243
21.97	14178
21.98	14332
21.99	14415
22.0	14249
22.01	14347
22.02	14206
22.03	13987
22.04	13960
22.05	14081
22.06	14207
22.07	14284
22.08	14266
22.09	14096
22.1	14029
22.11	14048
22.12	14052
22.13	14020
22.14	14119
22.15	14086
22.16	14116
22.17	14057
22.18	13993
22.19	14027
22.2	13964
22.21	13948
22.22	13931
22.23	13845
22.24	13896
22.25	13944
22.26	13932
22.27	13942
22.28	13886
22.29	13812
22.3	13710
22.31	13691
22.32	13808
22.33	13746
22.34	13643
22.35	13597
22.36	13584
22.37	13762
22.38	13578
22.39	13480
22.4	13514
22.41	13488
22.42	13533
22.43	13484
22.44	13376
22.45	13383
22.46	13303
22.47	13273
22.48	13199
22.49	13274
22.5	13256
22.51	13241
22.52	13204
22.53	13155
22.54	13093
22.55	13064
22.56	13011
22.57	13013
22.58	13134
22.59	12949
22.6	12961
22.61	12893
22.62	12977
22.63	13001
22.64	12876
22.65	12850
22.66	12854
22.67	12750
22.68	12884
22.69	12897
22.7	12871
22.71	12732
22.72	12684
22.73	12655
22.74	12621
22.75	12697
22.76	12727
22.77	12525
22.78	12550
22.79	12467
22.8	12416
22.81	12294
22.82	12298
22.83	12207
22.84	12306
22.85	12246
22.86	12163
22.87	12183
22.88	12050
22.89	12193
22.9	12194
22.91	12127
22.92	12062
22.93	11987
22.94	11993
22.95	12068
22.96	11878
22.97	11803
22.98	11835
22.99	11894
23.0	11888
23.01	11783
23.02	11723
23.03	11664
23.04	11751
23.05	11627
23.06	11660
23.07	11642
23.08	11443
23.09	11416
23.1	11474
23.11	11487
23.12	11466
23.13	11496
23.14	11454
23.15	11301
23.16	11375
23.17	11377
23.18	11251
23.19	11269
23.2	11224
23.21	11157
23.22	11129
23.23	11037
23.24	11104
23.25	11137
23.26	11077
23.27	11106
23.28	11018
23.29	11035
23.3	10957
23.31	10932
23.32	10829
23.33	10748
23.34	10725
23.35	10714
23.36	10852
23.37	10833
23.38	10792
23.39	10808
23.4	10758
23.41	10848
23.42	10744
23.43	10693
23.44	10529
23.45	10636
23.46	10556
23.47	10542
23.48	10726
23.49	10512
23.5	10584
23.51	10564
23.52	10490
23.53	10562
23.54	10461
23.55	10382
23.56	10315
23.57	10292
23.58	10274
23.59	10313
23.6	10400
23.61	10357
23.62	10346
23.63	10231
23.64	10217
23.65	10279
23.66	10340
23.67	10180
23.68	10046
23.69	10148
23.7	10125
23.71	9984
23.72	9917
23.73	10007
23.74	10113
23.75	10039
23.76	10080
23.77	10042
23.78	9922
23.79	9810
23.8	9830
23.81	9872
23.82	9859
23.83	9822
23.84	9725
23.85	9801
23.86	9777
23.87	9749
23.88	9785
23.89	9819
23.9	9858
23.91	9721
23.92	9821
23.93	9800
23.94	9763
23.95	9754
23.96	9621
23.97	9519
23.98	9588
23.99	9573
24.0	9570
24.01	9585
24.02	9567
24.03	9645
24.04	9673
24.05	9546
24.06	9462
24.07	9424
24.08	9516
24.09	9444
24.1	9573
24.11	9522
24.12	9490
24.13	9419
24.14	9333
24.15	9367
24.16	9515
24.17	9362
24.18	9314
24.19	9394
24.2	9408
24.21	9439
24.22	9445
24.23	9361
24.24	9408
24.25	9423
24.26	9356
24.27	9357
24.28	9404
24.29	9388
24.3	9260
24.31	9289
24.32	9284
24.33	9303
24.34	9228
24.35	9279
24.36	9246
24.37	9289
24.38	9266
24.39	9123
24.4	9215
24.41	9224
24.42	9196
24.43	9237
24.44	9273
24.45	9230
24.46	9242
24.47	9254
24.48	9328
24.49	9246
24.5	9259
24.51	9186
24.52	9157
24.53	9125
24.54	9180
24.55	9290
24.56	9227
24.57	9089
24.58	9033
24.59	9006
24.6	9071
24.61	9095
24.62	9148
24.63	9191
24.64	9173
24.65	9086
24.66	8994
24.67	9005
24.68	9106
24.69	9075
24.7	9031
24.71	9079
24.72	9101
24.73	9001
24.74	9106
24.75	9076
24.76	9101
24.77	9120
24.78	9124
24.79	9138
24.8	9068
24.81	9070
24.82	9240
24.83	9268
24.84	9153
24.85	9064
24.86	9123
24.87	9099
24.88	9021
24.89	9045
24.9	9068
24.91	9062
24.92	9012
24.93	9128
24.94	9153
24.95	9122
24.96	9099
24.97	9000
24.98	8920
24.99	9002
25.0	9097
25.01	9127
25.02	9086
25.03	9085
25.04	9116
25.05	9137
25.06	9142
25.07	9113
25.08	9107
25.09	9186
25.1	9177
25.11	9174
25.12	9220
25.13	9242
25.14	9109
25.15	9161
25.16	9250
25.17	9316
25.18	9169
25.19	9077
25.2	9173
25.21	9192
25.22	9166
25.23	9090
25.24	9093
25.25	9144
25.26	9175
25.27	9194
25.28	9252
25.29	9264
25.3	9213
25.31	9241
25.32	9237
25.33	9202
25.34	9197
25.35	9319
25.36	9405
25.37	9390
25.38	9277
25.39	9193
25.4	9196
25.41	9240
25.42	9347
25.43	9349
25.44	9275
25.45	9321
25.46	9348
25.47	9336
25.48	9317
25.49	9320
25.5	9307
25.51	9278
25.52	9247
25.53	9255
25.54	9275
25.55	9314
25.56	9390
25.57	9337
25.58	9321
25.59	9352
25.6	9303
25.61	9268
25.62	9359
25.63	9515
25.64	9483
25.65	9369
25.66	9405
25.67	9502
25.68	9516
25.69	9457
25.7	9366
25.71	9293
25.72	9386
25.73	9432
25.74	9426
25.75	9412
25.76	9327
25.77	9361
25.78	9336
25.79	9257
25.8	9351
25.81	9436
25.82	9431
25.83	9389
25.84	9290
25.85	9294
25.86	9332
25.87	9387
25.88	9448
25.89	9448
25.9	9505
25.91	9555
25.92	9420
25.93	9472
25.94	9504
25.95	9423
25.96	9375
25.97	9339
25.98	9360
25.99	9316
26.0	9315
26.01	9308
26.02	9162
26.03	9155
26.04	9287
26.05	9475
26.06	9501
26.07	9331
26.08	9246
26.09	9320
26.1	9399
26.11	9353
26.12	9228
26.13	9263
26.14	9276
26.15	9284
26.16	9256
26.17	9194
26.18	9184
26.19	9254
26.2	9349
26.21	9324
26.22	9229
26.23	9188
26.24	9205
26.25	9233
26.26	9237
26.27	9261
26.28	9234
26.29	9161
26.3	9155
26.31	9208
26.32	9190
26.33	9150
26.34	9127
26.35	9102
26.36	9107
26.37	9137
26.38	9114
26.39	9105
26.4	9098
26.41	9088
26.42	8971
26.43	8917
26.44	9021
26.45	9079
26.46	9019
26.47	8946
26.48	8856
26.49	8878
26.5	8998
26.51	8960
26.52	8794
26.53	8807
26.54	8911
26.55	8974
26.56	8945
26.57	8883
26.58	8879
26.59	8827
26.6	8749
26.61	8781
26.62	8804
26.63	8752
26.64	8684
26.65	8666
26.66	8721
26.67	8743
26.68	8752
26.69	8715
26.7	8567
26.71	8472
26.72	8501
26.73	8570
26.74	8618
26.75	8629
26.76	8580
26.77	8531
26.78	8562
26.79	8594
26.8	8515
26.81	8381
26.82	8321
26.83	8358
26.84	8326
26.85	8297
26.86	8312
26.87	8269
26.88	8257
26.89	8306
26.9	8336
26.91	8230
26.92	8100
26.93	8104
26.94	8129
26.95	8092
26.96	8052
26.97	8034
26.98	8032
26.99	8006
27.0	8008
27.01	8034
27.02	7935
27.03	7887
27.04	7964
27.05	8002
27.06	7932
27.07	7908
27.08	7935
27.09	7941
27.1	7908
27.11	7815
27.12	7803
27.13	7820
27.14	7752
27.15	7728
27.16	7767
27.17	7738
27.18	7676
27.19	7626
27.2	7647
27.21	7672
27.22	7597
27.23	7555
27.24	7582
27.25	7587
27.26	7586
27.27	7548
27.28	7542
27.29	7459
27.3	7343
27.31	7410
27.32	7446
27.33	7381
27.34	7360
27.35	7384
27.36	7372
27.37	7363
27.38	7353
27.39	7332
27.4	7355
27.41	7371
27.42	7323
27.43	7238
27.44	7122
27.45	7109
27.46	7179
27.47	7248
27.48	7228
27.49	7120
27.5	7056
27.51	7054
27.52	7098
27.53	7141
27.54	7132
27.55	7079
27.56	7031
27.57	6991
27.58	7001
27.59	7024
27.6	6949
27.61	6845
27.62	6792
27.63	6796
27.64	6808
27.65	6814
27.66	6778
27.67	6773
27.68	6801
27.69	6826
27.7	6829
27.71	6784
27.72	6732
27.73	6715
27.74	6673
27.75	6583
27.76	6585
27.77	6634
27.78	6643
27.79	6641
27.8	6659
27.81	6632
27.82	6553
27.83	6562
27.84	6622
27.85	6577
27.86	6545
27.87	6517
27.88	6484
27.89	6470
27.9	6485
27.91	6542
27.92	6578
27.93	6588
27.94	6496
27.95	6454
27.96	6482
27.97	6459
27.98	6425
27.99	6294
28.0	6311
28.01	6386
28.02	6355
28.03	6270
28.04	6265
28.05	6323
28.06	6336
28.07	6330
28.08	6351
28.09	6319
28.1	6218
28.11	6135
28.12	6169
28.13	6212
28.14	6232
28.15	6222
28.16	6083
28.17	6030
28.18	6085
28.19	6154
28.2	6135
28.21	6101
28.22	6150
28.23	6132
28.24	6025
28.25	5987
28.26	5991
28.27	6012
28.28	6010
28.29	5960
28.3	5967
28.31	5991
28.32	6038
28.33	5951
28.34	5910
28.35	5965
28.36	5952
28.37	5938
28.38	5910
28.39	5878
28.4	5837
28.41	5868
28.42	5863
28.43	5859
28.44	5877
28.45	5866
28.46	5861
28.47	5844
28.48	5833
28.49	5794
28.5	5752
28.51	5848
28.52	5892
28.53	5818
28.54	5744
28.55	5775
28.56	5735
28.57	5634
28.58	5625
28.59	5737
28.6	5762
28.61	5712
28.62	5755
28.63	5665
28.64	5597
28.65	5593
28.66	5565
28.67	5512
28.68	5555
28.69	5600
28.7	5603
28.71	5609
28.72	5596
28.73	5561
28.74	5502
28.75	5485
28.76	5517
28.77	5519
28.78	5505
28.79	5454
28.8	5399
28.81	5368
28.82	5402
28.83	5385
28.84	5325
28.85	5319
28.86	5358
28.87	5398
28.88	5379
28.89	5323
28.9	5351
28.91	5391
28.92	5379
28.93	5374
28.94	5381
28.95	5281
28.96	5305
28.97	5348
28.98	5398
28.99	5344
29.0	5342
29.01	5297
29.02	5250
29.03	5278
29.04	5266
29.05	5237
29.06	5258
29.07	5279
29.08	5208
29.09	5167
29.1	5204
29.11	5208
29.12	5151
29.13	5110
29.14	5104
29.15	5125
29.16	5098
29.17	5186
29.18	5179
29.19	5128
29.2	5155
29.21	5134
29.22	5025
29.23	5070
29.24	5178
29.25	5124
29.26	5129
29.27	5102
29.28	5088
29.29	5108
29.3	5091
29.31	5046
29.32	5009
29.33	5025
29.34	5088
29.35	5079
29.36	5054
29.37	4993
29.38	4946
29.39	4866
29.4	4935
29.41	4987
29.42	4937
29.43	4863
29.44	4888
29.45	4875
29.46	4848
29.47	4901
29.48	4942
29.49	4926
29.5	4887
29.51	4895
29.52	4863
29.53	4862
29.54	4887
29.55	4876
29.56	4916
29.57	4807
29.58	4671
29.59	4737
29.6	4723
29.61	4772
29.62	4793
29.63	4787
29.64	4808
29.65	4736
29.66	4747
29.67	4716
29.68	4735
29.69	4702
29.7	4673
29.71	4663
29.72	4664
29.73	4638
29.74	4649
29.75	4610
29.76	4514
29.77	4588
29.78	4587
29.79	4570
29.8	4507
29.81	4550
29.82	4576
29.83	4519
29.84	4510
29.85	4564
29.86	4552
29.87	4505
29.88	4533
29.89	4522
29.9	4563
29.91	4592
29.92	4556
29.93	4501
29.94	4539
29.95	4524
29.96	4503
29.97	4509
29.98	4535
29.99	4530
30.0	4475
30.01	4446
30.02	4423
30.03	4363
30.04	4289
30.05	4396
30.06	4334
30.07	4319
30.08	4348
30.09	4421
30.1	4473
30.11	4452
30.12	4458
30.13	4412
30.14	4427
30.15	4442
30.16	4358
30.17	4343
30.18	4320
30.19	4288
30.2	4329
30.21	4311
30.22	4298
30.23	4263
30.24	4258
30.25	4291
30.26	4274
30.27	4334
30.28	4255
30.29	4194
30.3	4332
30.31	4380
30.32	4272
30.33	4244
30.34	4239
30.35	4285
30.36	4265
30.37	4238
30.38	4281
30.39	4298
30.4	4175
30.41	4121
30.42	4155
30.43	4183
30.44	4136
30.45	4155
30.46	4189
30.47	4167
30.48	4192
30.49	4196
30.5	4174
30.51	4133
30.52	4162
30.53	4124
30.54	4172
30.55	4169
30.56	4173
30.57	4146
30.58	4131
30.59	4129
30.6	4111
30.61	4115
30.62	4108
30.63	4089
30.64	4148
30.65	4143
30.66	4083
30.67	4108
30.68	4130
30.69	4064
30.7	4133
30.71	4090
30.72	4089
30.73	4073
30.74	4081
30.75	4121
30.76	4106
30.77	4074
30.78	4076
30.79	4032
30.8	4042
30.81	4034
30.82	4006
30.83	3962
30.84	4016
30.85	4014
30.86	4015
30.87	3944
30.88	3920
30.89	3894
30.9	3906
30.91	3853
30.92	3944
30.93	3998
30.94	3928
30.95	3908
30.96	3876
30.97	3848
30.98	3923
30.99	3943
31.0	3884
31.01	3827
31.02	3777
31.03	3890
31.04	3849
31.05	3802
31.06	3894
31.07	3867
31.08	3854
31.09	3880
31.1	3793
31.11	3741
31.12	3853
31.13	3843
31.14	3834
31.15	3793
31.16	3832
31.17	3796
31.18	3795
31.19	3854
31.2	3836
31.21	3862
31.22	3858
31.23	3819
31.24	3811
31.25	3796
31.26	3704
31.27	3752
31.28	3717
31.29	3778
31.3	3692
31.31	3719
31.32	3767
31.33	3793
31.34	3715
31.35	3710
31.36	3759
31.37	3686
31.38	3713
31.39	3696
31.4	3714
31.41	3713
31.42	3728
31.43	3685
31.44	3631
31.45	3629
31.46	3639
31.47	3736
31.48	3702
31.49	3655
31.5	3684
31.51	3665
31.52	3673
31.53	3675
31.54	3678
31.55	3715
31.56	3636
31.57	3576
31.58	3629
31.59	3667
31.6	3555
31.61	3577
31.62	3649
31.63	3645
31.64	3627
31.65	3565
31.66	3578
31.67	3612
31.68	3577
31.69	3570
31.7	3577
31.71	3525
31.72	3512
31.73	3540
31.74	3595
31.75	3548
31.76	3513
31.77	3615
31.78	3703
31.79	3617
31.8	3614
31.81	3589
31.82	3541
31.83	3543
31.84	3591
31.85	3564
31.86	3549
31.87	3528
31.88	3550
31.89	3524
31.9	3463
31.91	3485
31.92	3465
31.93	3509
31.94	3492
31.95	3472
31.96	3452
31.97	3467
31.98	3452
31.99	3472
32.0	3510
32.01	3508
32.02	3502
32.03	3521
32.04	3524
32.05	3435
32.06	3428
32.07	3468
32.08	3441
32.09	3495
32.1	3485
32.11	3475
32.12	3429
32.13	3413
32.14	3319
32.15	3406
32.16	3450
32.17	3486
32.18	3438
32.19	3472
32.2	3427
32.21	3378
32.22	3448
32.23	3396
32.24	3388
32.25	3436
32.26	3443
32.27	3410
32.28	3375
32.29	3418
32.3	3439
32.31	3360
32.32	3353
32.33	3363
32.34	3333
32.35	3364
32.36	3391
32.37	3380
32.38	3359
32.39	3327
32.4	3318
32.41	3300
32.42	3330
32.43	3258
32.44	3295
32.45	3360
32.46	3365
32.47	3354
32.48	3350
32.49	3314
32.5	3276
32.51	3298
32.52	3270
32.53	3261
32.54	3272
32.55	3308
32.56	3314
32.57	3309
32.58	3257
32.59	3319
32.6	3313
32.61	3261
32.62	3262
32.63	3345
32.64	3308
32.65	3298
32.66	3311
32.67	3320
32.68	3335
32.69	3350
32.7	3276
32.71	3245
32.72	3257
32.73	3272
32.74	3249
32.75	3293
32.76	3312
32.77	3296
32.78	3249
32.79	3224
32.8	3242
32.81	3265
32.82	3287
32.83	3246
32.84	3235
32.85	3233
32.86	3238
32.87	3225
32.88	3200
32.89	3219
32.9	3233
32.91	3222
32.92	3202
32.93	3177
32.94	3174
32.95	3177
32.96	3233
32.97	3296
32.98	3227
32.99	3195
33.0	3119
33.01	3119
33.02	3158
33.03	3246
33.04	3255
33.05	3179
33.06	3123
33.07	3175
33.08	3111
33.09	3145
33.1	3121
33.11	3039
33.12	3068
33.13	3189
33.14	3149
33.15	3120
33.16	3164
33.17	3155
33.18	3071
33.19	3118
33.2	3143
33.21	3141
33.22	3139
33.23	3120
33.24	3115
33.25	3127
33.26	3113
33.27	3116
33.28	3150
33.29	3157
33.3	3148
33.31	3077
33.32	3090
33.33	3094
33.34	3106
33.35	3062
33.36	3032
33.37	3093
33.38	3058
33.39	3089
33.4	3114
33.41	3147
33.42	3173
33.43	3146
33.44	3076
33.45	3091
33.46	3098
33.47	3092
33.48	3136
33.49	3130
33.5	3204
33.51	3139
33.52	3112
33.53	3103
33.54	2995
33.55	2941
33.56	2985
33.57	3018
33.58	3045
33.59	3090
33.6	3074
33.61	3065
33.62	3039
33.63	3062
33.64	3057
33.65	3040
33.66	3053
33.67	3060
33.68	3095
33.69	3018
33.7	2982
33.71	3031
33.72	3076
33.73	3076
33.74	3053
33.75	3024
33.76	3016
33.77	3019
33.78	2984
33.79	3005
33.8	2923
33.81	2937
33.82	3026
33.83	3066
33.84	3042
33.85	3076
33.86	3080
33.87	3079
33.88	3077
33.89	2974
33.9	2982
33.91	2992
33.92	2975
33.93	2977
33.94	3033
33.95	3039
33.96	3018
33.97	3022
33.98	3017
33.99	2999
34.0	3014
34.01	2972
34.02	3028
34.03	3010
34.04	3086
34.05	3061
34.06	2946
34.07	2943
34.08	2997
34.09	2961
34.1	2951
34.11	2958
34.12	2987
34.13	2958
34.14	2967
34.15	2987
34.16	2991
34.17	2998
34.18	2980
34.19	2943
34.2	2924
34.21	2934
34.22	2946
34.23	2961
34.24	2950
34.25	2896
34.26	2963
34.27	2979
34.28	2947
34.29	2928
34.3	2954
34.31	2991
34.32	2987
34.33	2988
34.34	2978
34.35	2967
34.36	2962
34.37	2934
34.38	2937
34.39	2929
34.4	2900
34.41	2889
34.42	2928
34.43	2945
34.44	2922
34.45	2871
34.46	2883
34.47	2935
34.48	2940
34.49	3005
34.5	2987
34.51	2952
34.52	2928
34.53	2940
34.54	2903
34.55	2933
34.56	2933
34.57	2874
34.58	2900
34.59	2954
34.6	2910
34.61	2867
34.62	2886
34.63	2956
34.64	2940
34.65	2858
34.66	2836
34.67	2894
34.68	2916
34.69	2948
34.7	2959
34.71	2863
34.72	2825
34.73	2882
34.74	2943
34.75	2980
34.76	2927
34.77	2898
34.78	2908
34.79	2929
34.8	2950
34.81	2912
34.82	2915
34.83	2968
34.84	2940
34.85	2893
34.86	2885
34.87	2903
34.88	2909
34.89	2910
34.9	2943
34.91	2951
34.92	2952
34.93	2938
34.94	2917
34.95	2936
34.96	2969
34.97	2929
34.98	2949
34.99	2936
35.0	2949
35.01	2925
35.02	2884
35.03	2880
35.04	2882
35.05	2893
35.06	2926
35.07	2938
35.08	2941
35.09	2940
35.1	2931
35.11	2901
35.12	2880
35.13	2909
35.14	2933
35.15	2929
35.16	2948
35.17	2956
35.18	2942
35.19	2959
35.2	2936
35.21	2924
35.22	2909
35.23	2914
35.24	2932
35.25	2919
35.26	2918
35.27	2921
35.28	2911
35.29	2912
35.3	2920
35.31	2885
35.32	2888
35.33	2894
35.34	2927
35.35	2920
35.36	2893
35.37	2934
35.38	2961
35.39	2934
35.4	2892
35.41	2928
35.42	2974
35.43	2964
35.44	2930
35.45	2919
35.46	2926
35.47	2920
35.48	2917
35.49	2935
35.5	2929
35.51	2970
35.52	2985
35.53	2971
35.54	2935
35.55	2917
35.56	2906
35.57	2944
35.58	2976
35.59	2934
35.6	2930
35.61	3019
35.62	3012
35.63	2964
35.64	2940
35.65	2916
35.66	2939
35.67	2974
35.68	2969
35.69	2949
35.7	2948
35.71	2940
35.72	2943
35.73	2946
35.74	2959
35.75	2966
35.76	2977
35.77	3030
35.78	3013
35.79	2984
35.8	2979
35.81	2933
35.82	2970
35.83	3048
35.84	3051
35.85	3018
35.86	3032
35.87	3039
35.88	3017
35.89	3032
35.9	3063
35.91	3062
35.92	3026
35.93	3030
35.94	3086
35.95	3111
35.96	3125
35.97	3209
35.98	3276
35.99	3326
36.0	3371
36.01	3393
36.02	3392
36.03	3492
36.04	3605
36.05	3690
36.06	3864
36.07	4073
36.08	4225
36.09	4350
36.1	4557
36.11	4769
36.12	4918
36.13	5117
36.14	5389
36.15	5656
36.16	5859
36.17	6066
36.18	6293
36.19	6422
36.2	6409
36.21	6310
36.22	6147
36.23	5962
36.24	5865
36.25	5773
36.26	5554
36.27	5327
36.28	5185
36.29	5024
36.3	4828
36.31	4668
36.32	4492
36.33	4290
36.34	4104
36.35	3908
36.36	3752
36.37	3642
36.38	3565
36.39	3516
36.4	3393
36.41	3267
36.42	3216
36.43	3212
36.44	3178
36.45	3117
36.46	3100
36.47	3063
36.48	3022
36.49	2997
36.5	2982
36.51	3000
36.52	2964
36.53	2910
36.54	2915
36.55	2932
36.56	2909
36.57	2894
36.58	2932
36.59	2922
36.6	2905
36.61	2907
36.62	2899
36.63	2883
36.64	2850
36.65	2823
36.66	2817
36.67	2840
36.68	2838
36.69	2837
36.7	2835
36.71	2809
36.72	2801
36.73	2788
36.74	2746
36.75	2744
36.76	2782
36.77	2813
36.78	2830
36.79	2766
36.8	2727
36.81	2778
36.82	2790
36.83	2753
36.84	2763
36.85	2824
36.86	2804
36.87	2718
36.88	2703
36.89	2761
36.9	2795
36.91	2784
36.92	2800
36.93	2783
36.94	2710
36.95	2685
36.96	2707
36.97	2697
36.98	2710
36.99	2753
37.0	2763
37.01	2742
37.02	2724
37.03	2706
37.04	2638
37.05	2635
37.06	2684
37.07	2727
37.08	2715
37.09	2713
37.1	2762
37.11	2750
37.12	2689
37.13	2653
37.14	2714
37.15	2790
37.16	2760
37.17	2709
37.18	2695
37.19	2705
37.2	2703
37.21	2673
37.22	2668
37.23	2648
37.24	2615
37.25	2620
37.26	2656
37.27	2655
37.28	2664
37.29	2686
37.3	2650
37.31	2629
37.32	2603
37.33	2620
37.34	2672
37.35	2633
37.36	2585
37.37	2587
37.38	2617
37.39	2641
37.4	2649
37.41	2678
37.42	2654
37.43	2586
37.44	2590
37.45	2617
37.46	2642
37.47	2651
37.48	2621
37.49	2602
37.5	2620
37.51	2647
37.52	2681
37.53	2683
37.54	2657
37.55	2607
37.56	2611
37.57	2630
37.58	2626
37.59	2609
37.6	2615
37.61	2660
37.62	2707
37.63	2695
37.64	2667
37.65	2644
37.66	2646
37.67	2655
37.68	2684
37.69	2682
37.7	2697
37.71	2727
37.72	2683
37.73	2691
37.74	2769
37.75	2859
37.76	2959
37.77	2990
37.78	3017
37.79	3064
37.8	3099
37.81	3171
37.82	3257
37.83	3330
37.84	3365
37.85	3388
37.86	3419
37.87	3406
37.88	3335
37.89	3294
37.9	3277
37.91	3196
37.92	3169
37.93	3097
37.94	3038
37.95	3029
37.96	2985
37.97	2943
37.98	2875
37.99	2820
38.0	2748
38.01	2659
38.02	2640
38.03	2623
38.04	2586
38.05	2584
38.06	2589
38.07	2562
38.08	2528
38.09	2559
38.1	2593
38.11	2587
38.12	2620
38.13	2571
38.14	2516
38.15	2533
38.16	2490
38.17	2464
38.18	2496
38.19	2548
38.2	2538
38.21	2524
38.22	2498
38.23	2492
38.24	2498
38.25	2466
38.26	2420
38.27	2433
38.28	2472
38.29	2501
38.3	2486
38.31	2464
38.32	2492
38.33	2489
38.34	2479
38.35	2459
38.36	2439
38.37	2473
38.38	2500
38.39	2491
38.4	2450
38.41	2460
38.42	2478
38.43	2466
38.44	2453
38.45	2446
38.46	2448
38.47	2441
38.48	2406
38.49	2399
38.5	2428
38.51	2464
38.52	2520
38.53	2528
38.54	2443
38.55	2420
38.56	2481
38.57	2506
38.58	2475
38.59	2427
38.6	2433
38.61	2434
38.62	2422
38.63	2411
38.64	2414
38.65	2428
38.66	2474
38.67	2431
38.68	2406
38.69	2458
38.7	2433
38.71	2418
38.72	2462
38.73	2479
38.74	2434
38.75	2351
38.76	2382
38.77	2427
38.78	2439
38.79	2460
38.8	2470
38.81	2445
38.82	2386
38.83	2388
38.84	2431
38.85	2477
38.86	2437
38.87	2441
38.88	2414
38.89	2379
38.9	2396
38.91	2390
38.92	2398
38.93	2400
38.94	2430
38.95	2419
38.96	2371
38.97	2336
38.98	2342
38.99	2403
39.0	2392
39.01	2364
39.02	2367
39.03	2415
39.04	2407
39.05	2362
39.06	2340
39.07	2343
39.08	2357
39.09	2383
39.1	2401
39.11	2360
39.12	2337
39.13	2367
39.14	2382
39.15	2332
39.16	2327
39.17	2349
39.18	2371
39.19	2396
39.2	2406
39.21	2420
39.22	2402
39.23	2367
39.24	2339
39.25	2321
39.26	2332
39.27	2356
39.28	2355
39.29	2387
39.3	2402
39.31	2399
39.32	2342
39.33	2343
39.34	2334
39.35	2335
39.36	2334
39.37	2354
39.38	2379
39.39	2408
39.4	2408
39.41	2360
39.42	2353
39.43	2392
39.44	2329
39.45	2313
39.46	2299
39.47	2319
39.48	2368
39.49	2326
39.5	2341
39.51	2359
39.52	2348
39.53	2346
39.54	2352
39.55	2328
39.56	2318
39.57	2346
39.58	2340
39.59	2372
39.6	2371
39.61	2322
39.62	2349
39.63	2340
39.64	2377
39.65	2370
39.66	2365
39.67	2315
39.68	2296
39.69	2339
39.7	2296
39.71	2257
39.72	2293
39.73	2287
39.74	2288
39.75	2340
39.76	2348
39.77	2309
39.78	2336
39.79	2328
39.8	2299
39.81	2292
39.82	2311
39.83	2310
39.84	2332
39.85	2340
39.86	2334
39.87	2330
39.88	2339
39.89	2319
39.9	2303
39.91	2306
39.92	2306
39.93	2282
39.94	2245
39.95	2282
39.96	2298
39.97	2334
39.98	2309
39.99	2297
40.0	2306
40.01	2351
40.02	2373
40.03	2328
40.04	2322
40.05	2317
40.06	2329
40.07	2340
40.08	2294
40.09	2311
40.1	2304
40.11	2282
40.12	2267
40.13	2314
40.14	2340
40.15	2341
40.16	2356
40.17	2357
40.18	2349
40.19	2353
40.2	2361
40.21	2355
40.22	2367
40.23	2343
40.24	2378
40.25	2351
40.26	2352
40.27	2290
40.28	2292
40.29	2319
40.3	2278
40.31	2298
40.32	2273
40.33	2227
40.34	2311
40.35	2340
40.36	2278
40.37	2284
40.38	2315
40.39	2328
40.4	2289
40.41	2246
40.42	2282
40.43	2328
40.44	2281
40.45	2266
40.46	2260
40.47	2290
40.48	2300
40.49	2241
40.5	2298
40.51	2280
40.52	2317
40.53	2329
40.54	2269
40.55	2261
40.56	2340
40.57	2360
40.58	2370
40.59	2329
40.6	2345
40.61	2358
40.62	2342
40.63	2318
40.64	2316
40.65	2330
40.66	2299
40.67	2302
40.68	2357
40.69	2299
40.7	2243
40.71	2269
40.72	2303
40.73	2270
40.74	2282
40.75	2327
40.76	2287
40.77	2283
40.78	2269
40.79	2280
40.8	2328
40.81	2287
40.82	2294
40.83	2340
40.84	2348
40.85	2265
40.86	2287
40.87	2266
40.88	2333
40.89	2338
40.9	2345
40.91	2301
40.92	2273
40.93	2316
40.94	2305
40.95	2297
40.96	2233
40.97	2260
40.98	2327
40.99	2289
41.0	2252
41.01	2284
41.02	2324
41.03	2352
41.04	2318
41.05	2290
41.06	2284
41.07	2286
41.08	2286
41.09	2323
41.1	2372
41.11	2320
41.12	2359
41.13	2272
41.14	2281
41.15	2313
41.16	2301
41.17	2262
41.18	2262
41.19	2322
41.2	2315
41.21	2230
41.22	2210
41.23	2236
41.24	2286
41.25	2179
41.26	2182
41.27	2291
41.28	2341
41.29	2366
41.3	2296
41.31	2306
41.32	2278
41.33	2264
41.34	2296
41.35	2286
41.36	2268
41.37	2253
41.38	2286
41.39	2268
41.4	2262
41.41	2287
41.42	2278
41.43	2305
41.44	2305
41.45	2289
41.46	2252
41.47	2275
41.48	2315
41.49	2286
41.5	2287
41.51	2294
41.52	2306
41.53	2297
41.54	2223
41.55	2274
41.56	2334
41.57	2310
41.58	2280
41.59	2322
41.6	2317
41.61	2301
41.62	2275
41.63	2316
41.64	2269
41.65	2240
41.66	2282
41.67	2254
41.68	2290
41.69	2299
41.7	2250
41.71	2293
41.72	2311
41.73	2216
41.74	2259
41.75	2313
41.76	2226
41.77	2233
41.78	2274
41.79	2281
41.8	2290
41.81	2233
41.82	2203
41.83	2240
41.84	2299
41.85	2270
41.86	2209
41.87	2210
41.88	2225
41.89	2239
41.9	2289
41.91	2281
41.92	2228
41.93	2268
41.94	2326
41.95	2311
41.96	2346
41.97	2269
41.98	2289
41.99	2224
42.0	2249
42.01	2241
42.02	2243
42.03	2244
42.04	2249
42.05	2223
42.06	2243
42.07	2322
42.08	2305
42.09	2247
42.1	2222
42.11	2279
42.12	2277
42.13	2287
42.14	2266
42.15	2273
42.16	2287
42.17	2246
42.18	2228
42.19	2243
42.2	2259
42.21	2223
42.22	2230
42.23	2298
42.24	2312
42.25	2250
42.26	2248
42.27	2235
42.28	2187
42.29	2227
42.3	2250
42.31	2299
42.32	2301
42.33	2257
42.34	2264
42.35	2290
42.36	2249
42.37	2230
42.38	2228
42.39	2266
42.4	2252
42.41	2242
42.42	2223
42.43	2189
42.44	2162
42.45	2250
42.46	2263
42.47	2260
42.48	2297
42.49	2272
42.5	2263
42.51	2270
42.52	2181
42.53	2250
42.54	2281
42.55	2271
42.56	2278
42.57	2206
42.58	2239
42.59	2270
42.6	2220
42.61	2231
42.62	2252
42.63	2300
42.64	2270
42.65	2220
42.66	2212
42.67	2230
42.68	2223
42.69	2257
42.7	2291
42.71	2258
42.72	2271
42.73	2320
42.74	2250
42.75	2184
42.76	2173
42.77	2236
42.78	2268
42.79	2235
42.8	2242
42.81	2265
42.82	2232
42.83	2227
42.84	2190
42.85	2216
42.86	2254
42.87	2272
42.88	2264
42.89	2258
42.9	2252
42.91	2204
42.92	2229
42.93	2245
42.94	2206
42.95	2232
42.96	2208
42.97	2226
42.98	2155
42.99	2194
43.0	2251
43.01	2296
43.02	2246
43.03	2210
43.04	2193
43.05	2223
43.06	2192
43.07	2208
43.08	2237
43.09	2219
43.1	2247
43.11	2201
43.12	2259
43.13	2274
43.14	2176
43.15	2191
43.16	2201
43.17	2174
43.18	2179
43.19	2184
43.2	2240
43.21	2260
43.22	2241
43.23	2244
43.24	2212
43.25	2224
43.26	2263
43.27	2272
43.28	2248
43.29	2229
43.3	2214
43.31	2210
43.32	2197
43.33	2203
43.34	2238
43.35	2253
43.36	2197
43.37	2223
43.38	2258
43.39	2258
43.4	2227
43.41	2266
43.42	2238
43.43	2259
43.44	2255
43.45	2185
43.46	2255
43.47	2277
43.48	2267
43.49	2252
43.5	2215
43.51	2249
43.52	2266
43.53	2262
43.54	2317
43.55	2328
43.56	2295
43.57	2329
43.58	2345
43.59	2339
43.6	2349
43.61	2322
43.62	2329
43.63	2380
43.64	2391
43.65	2389
43.66	2440
43.67	2440
43.68	2473
43.69	2495
43.7	2502
43.71	2571
43.72	2579
43.73	2564
43.74	2664
43.75	2716
43.76	2764
43.77	2791
43.78	2826
43.79	2866
43.8	2993
43.81	3072
43.82	3238
43.83	3328
43.84	3527
43.85	3687
43.86	3839
43.87	4040
43.88	4225
43.89	4426
43.9	4702
43.91	4980
43.92	5163
43.93	5467
43.94	5706
43.95	5940
43.96	6109
43.97	6206
43.98	6336
43.99	6298
44.0	6327
44.01	6311
44.02	6184
44.03	6030
44.04	5889
44.05	5710
44.06	5596
44.07	5425
44.08	5272
44.09	5144
44.1	5062
44.11	4890
44.12	4673
44.13	4447
44.14	4238
44.15	4056
44.16	3831
44.17	3655
44.18	3509
44.19	3340
44.2	3284
44.21	3218
44.22	3161
44.23	2995
44.24	2944
44.25	2863
44.26	2825
44.27	2726
44.28	2685
44.29	2621
44.3	2602
44.31	2579
44.32	2487
44.33	2481
44.34	2491
44.35	2445
44.36	2375
44.37	2359
44.38	2371
44.39	2372
44.4	2406
44.41	2371
44.42	2327
44.43	2332
44.44	2345
44.45	2329
44.46	2314
44.47	2296
44.48	2298
44.49	2233
44.5	2267
44.51	2245
44.52	2184
44.53	2163
44.54	2172
44.55	2207
44.56	2233
44.57	2244
44.58	2235
44.59	2215
44.6	2195
44.61	2160
44.62	2189
44.63	2138
44.64	2162
44.65	2176
44.66	2201
44.67	2248
44.68	2192
44.69	2162
44.7	2153
44.71	2189
44.72	2158
44.73	2154
44.74	2148
44.75	2145
44.76	2138
44.77	2162
44.78	2154
44.79	2121
44.8	2114
44.81	2134
44.82	2131
44.83	2162
44.84	2184
44.85	2178
44.86	2138
44.87	2141
44.88	2176
44.89	2178
44.9	2162
44.91	2102
44.92	2098
44.93	2081
44.94	2115
44.95	2112
44.96	2106
44.97	2124
44.98	2152
44.99	2175
45.0	2146
45.01	2073
45.02	2066
45.03	2082
45.04	2087
45.05	2093
45.06	2125
45.07	2100
45.08	2067
45.09	2080
45.1	2119
45.11	2121
45.12	2152
45.13	2124
45.14	2112
45.15	2106
45.16	2095
45.17	2082
45.18	2062
45.19	2062
45.2	2067
45.21	2076
45.22	2097
45.23	2107
45.24	2113
45.25	2074
45.26	2092
45.27	2109
45.28	2103
45.29	2102
45.3	2123
45.31	2128
45.32	2120
45.33	2106
45.34	2111
45.35	2080
45.36	2102
45.37	2115
45.38	2114
45.39	2087
45.4	2089
45.41	2057
45.42	2066
45.43	2074
45.44	2073
45.45	2086
45.46	2114
45.47	2107
45.48	2073
45.49	2075
45.5	2077
45.51	2102
45.52	2115
45.53	2147
45.54	2146
45.55	2194
45.56	2137
45.57	2062
45.58	2047
45.59	2095
45.6	2113
45.61	2089
45.62	2063
45.63	2077
45.64	2094
45.65	2130
45.66	2107
45.67	2079
45.68	2091
45.69	2115
45.7	2087
45.71	2051
45.72	2072
45.73	2122
45.74	2094
45.75	2055
45.76	2103
45.77	2091
45.78	2060
45.79	2117
45.8	2125
45.81	2100
45.82	2104
45.83	2096
45.84	2074
45.85	2055
45.86	2028
45.87	2076
45.88	2093
45.89	2103
45.9	2088
45.91	2109
45.92	2101
45.93	2120
45.94	2148
45.95	2092
45.96	2062
45.97	2079
45.98	2118
45.99	2072
46.0	2072
46.01	2055
46.02	2063
46.03	2029
46.04	1998
46.05	1988
46.06	2022
46.07	2067
46.08	2086
46.09	2077
46.1	2039
46.11	2034
46.12	2009
46.13	2041
46.14	2042
46.15	2045
46.16	2023
46.17	2088
46.18	2113
46.19	2065
46.2	2056
46.21	2061
46.22	2069
46.23	2071
46.24	2057
46.25	2092
46.26	2083
46.27	2060
46.28	2042
46.29	2027
46.3	2061
46.31	2023
46.32	2012
46.33	2087
46.34	2051
46.35	2019
46.36	2079
46.37	2072
46.38	2049
46.39	2019
46.4	2060
46.41	2050
46.42	2049
46.43	2031
46.44	2057
46.45	2066
46.46	2073
46.47	2104
46.48	2091
46.49	2059
46.5	2032
46.51	2017
46.52	2050
46.53	2063
46.54	2093
46.55	2094
46.56	2084
46.57	2090
46.58	2074
46.59	2064
46.6	2047
46.61	2055
46.62	2067
46.63	2066
46.64	2046
46.65	2045
46.66	2054
46.67	2058
46.68	2064
46.69	2040
46.7	2021
46.71	2017
46.72	2020
46.73	2022
46.74	2032
46.75	2052
46.76	2073
46.77	2103
46.78	2044
46.79	2031
46.8	2039
46.81	2054
46.82	2040
46.83	2023
46.84	1993
46.85	2009
46.86	2012
46.87	1995
46.88	2040
46.89	2071
46.9	2014
46.91	2004
46.92	2017
46.93	2039
46.94	2049
46.95	2050
46.96	2030
46.97	2002
46.98	2024
46.99	2062
47.0	2025
47.01	1987
47.02	1991
47.03	2013
47.04	2024
47.05	2033
47.06	2020
47.07	2015
47.08	2033
47.09	2055
47.1	2076
47.11	2044
47.12	2025
47.13	2017
47.14	2006
47.15	2014
47.16	2017
47.17	2027
47.18	2040
47.19	2052
47.2	2058
47.21	2020
47.22	1951
47.23	1959
47.24	1987
47.25	2016
47.26	2021
47.27	2063
47.28	2059
47.29	2036
47.3	2047
47.31	2028
47.32	2001
47.33	1973
47.34	2001
47.35	2001
47.36	1978
47.37	1989
47.38	1998
47.39	2016
47.4	2015
47.41	2015
47.42	2036
47.43	2020
47.44	1991
47.45	1973
47.46	1994
47.47	2009
47.48	2049
47.49	2031
47.5	1986
47.51	1996
47.52	2018
47.53	1982
47.54	1994
47.55	2075
47.56	2092
47.57	2020
47.58	1979
47.59	2010
47.6	2052
47.61	2034
47.62	2020
47.63	2052
47.64	2049
47.65	2010
47.66	2006
47.67	2021
47.68	2019
47.69	2016
47.7	2003
47.71	1979
47.72	2013
47.73	2062
47.74	2053
47.75	2063
47.76	2024
47.77	2009
47.78	2020
47.79	2048
47.8	2054
47.81	2030
47.82	2023
47.83	2023
47.84	2051
47.85	2024
47.86	2022
47.87	2048
47.88	2035
47.89	2024
47.9	2051
47.91	2071
47.92	2075
47.93	2086
47.94	2095
47.95	2091
47.96	2088
47.97	2108
47.98	2121
47.99	2141
48.0	2164
48.01	2149
48.02	2169
48.03	2250
48.04	2304
48.05	2329
48.06	2375
48.07	2388
48.08	2459
48.09	2562
48.1	2628
48.11	2716
48.12	2755
48.13	2819
48.14	2893
48.15	2934
48.16	2935
48.17	2912
48.18	2851
48.19	2827
48.2	2829
48.21	2827
48.22	2743
48.23	2652
48.24	2637
48.25	2629
48.26	2572
48.27	2562
48.28	2588
48.29	2581
48.3	2543
48.31	2484
48.32	2406
48.33	2374
48.34	2360
48.35	2323
48.36	2287
48.37	2243
48.38	2161
48.39	2096
48.4	2104
48.41	2124
48.42	2132
48.43	2121
48.44	2119
48.45	2131
48.46	2088
48.47	2047
48.48	2063
48.49	2074
48.5	2061
48.51	2051
48.52	2038
48.53	2010
48.54	1998
48.55	2031
48.56	2067
48.57	2054
48.58	2033
48.59	2018
48.6	2012
48.61	2048
48.62	2068
48.63	2035
48.64	2010
48.65	1997
48.66	2005
48.67	2033
48.68	2024
48.69	1989
48.7	1991
48.71	1994
48.72	1999
48.73	1991
48.74	1964
48.75	1974
48.76	1993
48.77	2003
48.78	2017
48.79	2032
48.8	2012
48.81	1967
48.82	1973
48.83	1985
48.84	1983
48.85	1997
48.86	1997
48.87	1996
48.88	1991
48.89	1999
48.9	2017
48.91	1993
48.92	1955
48.93	1951
48.94	1973
48.95	1974
48.96	1967
48.97	1967
48.98	1952
48.99	1956
49.0	1961
49.01	1967
49.02	1974
49.03	1999
49.04	2026
49.05	2000
49.06	1974
49.07	1985
49.08	2009
49.09	2020
49.1	2002
49.11	1990
49.12	1998
49.13	2002
49.14	2004
49.15	2014
49.16	1991
49.17	1977
49.18	1967
49.19	1922
49.2	1945
49.21	1983
49.22	1968
49.23	1989
49.24	1992
49.25	1967
49.26	1952
49.27	1938
49.28	1920
49.29	1943
49.3	1970
49.31	1946
49.32	1938
49.33	1959
49.34	1950
49.35	1903
49.36	1879
49.37	1905
49.38	1927
49.39	1924
49.4	1925
49.41	1936
49.42	1960
49.43	1980
49.44	1974
49.45	1950
49.46	1946
49.47	1971
49.48	1999
49.49	1980
49.5	1959
49.51	1939
49.52	1935
49.53	1944
49.54	1937
49.55	1934
49.56	1933
49.57	1923
49.58	1913
49.59	1905
49.6	1912
49.61	1931
49.62	1898
49.63	1856
49.64	1899
49.65	1965
49.66	1953
49.67	1924
49.68	1916
49.69	1928
49.7	1944
49.71	1909
49.72	1901
49.73	1921
49.74	1930
49.75	1959
49.76	1985
49.77	1944
49.78	1914
49.79	1937
49.8	1938
49.81	1914
49.82	1891
49.83	1892
49.84	1925
49.85	1949
49.86	1926
49.87	1895
49.88	1929
49.89	1956
49.9	1928
49.91	1887
49.92	1867
49.93	1883
49.94	1912
49.95	1929
49.96	1923
49.97	1907
49.98	1886
49.99	1861
50.0	1875
50.01	1916
50.02	1903
50.03	1904
50.04	1929
50.05	1922
50.06	1928
50.07	1941
50.08	1937
50.09	1928
50.1	1921
50.11	1900
50.12	1900
50.13	1932
50.14	1902
50.15	1886
50.16	1908
50.17	1897
50.18	1881
50.19	1885
50.2	1887
50.21	1894
50.22	1923
50.23	1898
50.24	1853
50.25	1871
50.26	1870
50.27	1828
50.28	1851
50.29	1883
50.3	1877
50.31	1870
50.32	1902
50.33	1931
50.34	1888
50.35	1881
50.36	1907
50.37	1904
50.38	1889
50.39	1879
50.4	1902
50.41	1933
50.42	1910
50.43	1877
50.44	1869
50.45	1889
50.46	1912
50.47	1880
50.48	1852
50.49	1875
50.5	1889
50.51	1876
50.52	1894
50.53	1909
50.54	1905
50.55	1890
50.56	1869
50.57	1887
50.58	1927
50.59	1941
50.6	1905
50.61	1829
50.62	1800
50.63	1839
50.64	1881
50.65	1938
50.66	1923
50.67	1857
50.68	1868
50.69	1886
50.7	1845
50.71	1827
50.72	1838
50.73	1818
50.74	1817
50.75	1829
50.76	1834
50.77	1849
50.78	1865
50.79	1865
50.8	1839
50.81	1850
50.82	1882
50.83	1886
50.84	1892
50.85	1911
50.86	1908
50.87	1896
50.88	1908
50.89	1896
50.9	1862
50.91	1860
50.92	1890
50.93	1886
50.94	1877
50.95	1902
50.96	1889
50.97	1853
50.98	1844
50.99	1866
51.0	1886
51.01	1900
51.02	1875
51.03	1836
51.04	1854
51.05	1850
51.06	1829
51.07	1857
51.08	1874
51.09	1848
51.1	1858
51.11	1852
51.12	1819
51.13	1831
51.14	1839
51.15	1848
51.16	1870
51.17	1866
51.18	1841
51.19	1812
51.2	1821
51.21	1856
51.22	1841
51.23	1800
51.24	1822
51.25	1837
51.26	1835
51.27	1854
51.28	1853
51.29	1820
51.3	1789
51.31	1802
51.32	1813
51.33	1828
51.34	1861
51.35	1872
51.36	1850
51.37	1808
51.38	1810
51.39	1847
51.4	1847
51.41	1834
51.42	1853
51.43	1891
51.44	1890
51.45	1869
51.46	1867
51.47	1867
51.48	1844
51.49	1814
51.5	1795
51.51	1809
51.52	1843
51.53	1839
51.54	1812
51.55	1796
51.56	1783
51.57	1787
51.58	1802
51.59	1803
51.6	1804
51.61	1799
51.62	1821
51.63	1846
51.64	1832
51.65	1825
51.66	1832
51.67	1871
51.68	1877
51.69	1823
51.7	1787
51.71	1804
51.72	1835
51.73	1854
51.74	1835
51.75	1814
51.76	1798
51.77	1803
51.78	1835
51.79	1839
51.8	1835
51.81	1818
51.82	1784
51.83	1769
51.84	1800
51.85	1821
51.86	1800
51.87	1767
51.88	1774
51.89	1804
51.9	1790
51.91	1785
51.92	1796
51.93	1813
51.94	1815
51.95	1832
51.96	1841
51.97	1838
51.98	1835
51.99	1826
52.0	1800
52.01	1810
52.02	1842
52.03	1821
52.04	1803
52.05	1818
52.06	1826
52.07	1840
52.08	1850
52.09	1835
52.1	1811
52.11	1793
52.12	1777
52.13	1800
52.14	1840
52.15	1830
52.16	1805
52.17	1803
52.18	1792
52.19	1789
52.2	1793
52.21	1811
52.22	1826
52.23	1803
52.24	1788
52.25	1802
52.26	1826
52.27	1830
52.28	1822
52.29	1815
52.3	1790
52.31	1813
52.32	1818
52.33	1798
52.34	1803
52.35	1801
52.36	1812
52.37	1802
52.38	1782
52.39	1784
52.4	1821
52.41	1846
52.42	1839
52.43	1833
52.44	1836
52.45	1805
52.46	1778
52.47	1822
52.48	1829
52.49	1778
52.5	1792
52.51	1812
52.52	1793
52.53	1770
52.54	1801
52.55	1826
52.56	1791
52.57	1756
52.58	1735
52.59	1768
52.6	1799
52.61	1783
52.62	1775
52.63	1762
52.64	1785
52.65	1846
52.66	1828
52.67	1811
52.68	1835
52.69	1829
52.7	1805
52.71	1816
52.72	1812
52.73	1773
52.74	1778
52.75	1803
52.76	1814
52.77	1792
52.78	1806
52.79	1797
52.8	1764
52.81	1797
52.82	1835
52.83	1820
52.84	1795
52.85	1805
52.86	1809
52.87	1828
52.88	1851
52.89	1803
52.9	1781
52.91	1783
52.92	1785
52.93	1804
52.94	1812
52.95	1827
52.96	1805
52.97	1739
52.98	1754
52.99	1796
53.0	1827
53.01	1832
53.02	1818
53.03	1788
53.04	1769
53.05	1767
53.06	1788
53.07	1815
53.08	1835
53.09	1857
53.1	1858
53.11	1839
53.12	1818
53.13	1773
53.14	1773
53.15	1787
53.16	1812
53.17	1822
53.18	1803
53.19	1793
53.2	1768
53.21	1768
53.22	1798
53.23	1805
53.24	1763
53.25	1761
53.26	1792
53.27	1796
53.28	1799
53.29	1772
53.3	1772
53.31	1789
53.32	1754
53.33	1755
53.34	1767
53.35	1782
53.36	1795
53.37	1777
53.38	1743
53.39	1745
53.4	1741
53.41	1758
53.42	1759
53.43	1756
53.44	1781
53.45	1788
53.46	1765
53.47	1763
53.48	1820
53.49	1850
53.5	1789
53.51	1747
53.52	1764
53.53	1762
53.54	1756
53.55	1752
53.56	1764
53.57	1765
53.58	1758
53.59	1785
53.6	1799
53.61	1782
53.62	1752
53.63	1731
53.64	1757
53.65	1774
53.66	1770
53.67	1767
53.68	1789
53.69	1812
53.7	1809
53.71	1815
53.72	1795
53.73	1770
53.74	1782
53.75	1774
53.76	1793
53.77	1812
53.78	1801
53.79	1798
53.8	1762
53.81	1730
53.82	1742
53.83	1757
53.84	1743
53.85	1735
53.86	1770
53.87	1787
53.88	1749
53.89	1739
53.9	1769
53.91	1795
53.92	1813
53.93	1789
53.94	1762
53.95	1778
53.96	1786
53.97	1759
53.98	1739
53.99	1739
54.0	1778
54.01	1844
54.02	1836
54.03	1814
54.04	1818
54.05	1801
54.06	1813
54.07	1837
54.08	1832
54.09	1803
54.1	1778
54.11	1748
54.12	1743
54.13	1763
54.14	1769
54.15	1753
54.16	1768
54.17	1779
54.18	1767
54.19	1740
54.2	1735
54.21	1748
54.22	1767
54.23	1771
54.24	1750
54.25	1721
54.26	1753
54.27	1778
54.28	1758
54.29	1756
54.3	1786
54.31	1809
54.32	1790
54.33	1768
54.34	1748
54.35	1783
54.36	1816
54.37	1804
54.38	1807
54.39	1818
54.4	1765
54.41	1723
54.42	1758
54.43	1788
54.44	1766
54.45	1737
54.46	1746
54.47	1747
54.48	1770
54.49	1782
54.5	1746
54.51	1743
54.52	1758
54.53	1770
54.54	1769
54.55	1763
54.56	1761
54.57	1767
54.58	1773
54.59	1768
54.6	1770
54.61	1777
54.62	1773
54.63	1755
54.64	1752
54.65	1757
54.66	1741
54.67	1750
54.68	1795
54.69	1768
54.7	1733
54.71	1734
54.72	1746
54.73	1750
54.74	1775
54.75	1781
54.76	1782
54.77	1742
54.78	1734
54.79	1724
54.8	1714
54.81	1716
54.82	1727
54.83	1736
54.84	1792
54.85	1775
54.86	1728
54.87	1739
54.88	1782
54.89	1800
54.9	1792
54.91	1784
54.92	1806
54.93	1791
54.94	1756
54.95	1728
54.96	1716
54.97	1735
54.98	1756
54.99	1770
55.0	1767
55.01	1756
55.02	1753
55.03	1750
55.04	1778
55.05	1748
55.06	1751
55.07	1778
55.08	1786
55.09	1754
55.1	1758
55.11	1782
55.12	1770
55.13	1753
55.14	1732
55.15	1711
55.16	1735
55.17	1754
55.18	1754
55.19	1721
55.2	1717
55.21	1762
55.22	1789
55.23	1787
55.24	1754
55.25	1766
55.26	1762
55.27	1754
55.28	1769
55.29	1740
55.3	1753
55.31	1764
55.32	1766
55.33	1747
55.34	1763
55.35	1778
55.36	1764
55.37	1735
55.38	1715
55.39	1698
55.4	1716
55.41	1750
55.42	1756
55.43	1741
55.44	1722
55.45	1741
55.46	1744
55.47	1726
55.48	1736
55.49	1752
55.5	1761
55.51	1768
55.52	1785
55.53	1752
55.54	1758
55.55	1795
55.56	1776
55.57	1736
55.58	1723
55.59	1727
55.6	1756
55.61	1740
55.62	1759
55.63	1805
55.64	1795
55.65	1746
55.66	1709
55.67	1682
55.68	1672
55.69	1729
55.7	1744
55.71	1738
55.72	1737
55.73	1749
55.74	1750
55.75	1754
55.76	1741
55.77	1736
55.78	1725
55.79	1750
55.8	1768
55.81	1752
55.82	1720
55.83	1726
55.84	1724
55.85	1713
55.86	1746
55.87	1738
55.88	1698
55.89	1719
55.9	1734
55.91	1749
55.92	1796
55.93	1761
55.94	1709
55.95	1765
55.96	1773
55.97	1723
55.98	1701
55.99	1717
56.0	1746
56.01	1764
56.02	1743
56.03	1728
56.04	1725
56.05	1703
56.06	1727
56.07	1767
56.08	1764
56.09	1729
56.1	1731
56.11	1758
56.12	1752
56.13	1713
56.14	1749
56.15	1758
56.16	1736
56.17	1740
56.18	1732
56.19	1719
56.2	1745
56.21	1786
56.22	1742
56.23	1704
56.24	1711
56.25	1734
56.26	1739
56.27	1736
56.28	1741
56.29	1743
56.3	1725
56.31	1701
56.32	1712
56.33	1720
56.34	1733
56.35	1726
56.36	1737
56.37	1725
56.38	1728
56.39	1713
56.4	1713
56.41	1746
56.42	1715
56.43	1717
56.44	1730
56.45	1729
56.46	1739
56.47	1701
56.48	1689
56.49	1735
56.5	1708
56.51	1668
56.52	1720
56.53	1729
56.54	1751
56.55	1743
56.56	1739
56.57	1764
56.58	1793
56.59	1750
56.6	1757
56.61	1750
56.62	1685
56.63	1682
56.64	1681
56.65	1681
56.66	1724
56.67	1744
56.68	1721
56.69	1721
56.7	1732
56.71	1742
56.72	1748
56.73	1741
56.74	1739
56.75	1742
56.76	1716
56.77	1715
56.78	1699
56.79	1673
56.8	1695
56.81	1726
56.82	1711
56.83	1715
56.84	1734
56.85	1755
56.86	1784
56.87	1777
56.88	1732
56.89	1697
56.9	1692
56.91	1701
56.92	1710
56.93	1722
56.94	1722
56.95	1716
56.96	1698
56.97	1708
56.98	1678
56.99	1671
57.0	1735
57.01	1702
57.02	1695
57.03	1701
57.04	1684
57.05	1668
57.06	1669
57.07	1693
57.08	1686
57.09	1700
57.1	1702
57.11	1707
57.12	1704
57.13	1693
57.14	1712
57.15	1704
57.16	1706
57.17	1728
57.18	1728
57.19	1711
57.2	1725
57.21	1732
57.22	1739
57.23	1727
57.24	1735
57.25	1718
57.26	1698
57.27	1692
57.28	1679
57.29	1669
57.3	1679
57.31	1696
57.32	1714
57.33	1725
57.34	1723
57.35	1732
57.36	1729
57.37	1755
57.38	1726
57.39	1660
57.4	1664
57.41	1707
57.42	1739
57.43	1730
57.44	1731
57.45	1732
57.46	1700
57.47	1691
57.48	1701
57.49	1708
57.5	1718
57.51	1734
57.52	1744
57.53	1712
57.54	1675
57.55	1659
57.56	1678
57.57	1700
57.58	1725
57.59	1726
57.6	1731
57.61	1754
57.62	1700
57.63	1716
57.64	1724
57.65	1681
57.66	1676
57.67	1719
57.68	1728
57.69	1723
57.7	1735
57.71	1716
57.72	1682
57.73	1706
57.74	1725
57.75	1728
57.76	1714
57.77	1741
57.78	1776
57.79	1775
57.8	1744
57.81	1797
57.82	1791
57.83	1748
57.84	1750
57.85	1812
57.86	1850
57.87	1812
57.88	1781
57.89	1780
57.9	1850
57.91	1880
57.92	1862
57.93	1845
57.94	1862
57.95	1948
57.96	1960
57.97	1965
57.98	1996
57.99	2021
58.0	2010
58.01	2078
58.02	2147
58.03	2198
58.04	2238
58.05	2289
58.06	2309
58.07	2360
58.08	2454
58.09	2579
58.1	2731
58.11	2871
58.12	2955
58.13	3023
58.14	3099
58.15	3169
58.16	3263
58.17	3325
58.18	3323
58.19	3310
58.2	3274
58.21	3244
58.22	3140
58.23	3052
58.24	3017
58.25	2990
58.26	2927
58.27	2866
58.28	2891
58.29	2881
58.3	2836
58.31	2825
58.32	2807
58.33	2784
58.34	2769
58.35	2709
58.36	2699
58.37	2630
58.38	2531
58.39	2464
58.4	2377
58.41	2313
58.42	2244
58.43	2165
58.44	2163
58.45	2103
58.46	2051
58.47	2071
58.48	2060
58.49	2027
58.5	1960
58.51	1924
58.52	1893
58.53	1880
58.54	1878
58.55	1889
58.56	1887
58.57	1836
58.58	1815
58.59	1844
58.6	1829
58.61	1780
58.62	1764
58.63	1788
58.64	1791
58.65	1771
58.66	1763
58.67	1775
58.68	1732
58.69	1732
58.7	1741
58.71	1763
58.72	1746
58.73	1738
58.74	1735
58.75	1712
58.76	1708
58.77	1690
58.78	1702
58.79	1720
58.8	1698
58.81	1695
58.82	1731
58.83	1721
58.84	1663
58.85	1675
58.86	1702
58.87	1704
58.88	1675
58.89	1705
58.9	1705
58.91	1683
58.92	1717
58.93	1720
58.94	1721
58.95	1761
58.96	1697
58.97	1673
58.98	1693
58.99	1663
59.0	1644
59.01	1636
59.02	1622
59.03	1641
59.04	1630
59.05	1635
59.06	1664
59.07	1640
59.08	1619
59.09	1648
59.1	1642
59.11	1640
59.12	1683
59.13	1716
59.14	1722
59.15	1687
59.16	1672
59.17	1648
59.18	1645
59.19	1676
59.2	1694
59.21	1656
59.22	1645
59.23	1669
59.24	1668
59.25	1661
59.26	1689
59.27	1677
59.28	1650
59.29	1648
59.3	1674
59.31	1622
59.32	1634
59.33	1655
59.34	1659
59.35	1663
59.36	1652
59.37	1641
59.38	1641
59.39	1663
59.4	1711
59.41	1660
59.42	1630
59.43	1647
59.44	1660
59.45	1670
59.46	1651
59.47	1627
59.48	1657
59.49	1650
59.5	1663
59.51	1644
59.52	1649
59.53	1652
59.54	1664
59.55	1647
59.56	1612
59.57	1636
59.58	1648
59.59	1626
59.6	1654
59.61	1668
59.62	1632
59.63	1660
59.64	1644
59.65	1645
59.66	1682
59.67	1619
59.68	1621
59.69	1699
59.7	1699
59.71	1646
59.72	1638
59.73	1671
59.74	1606
59.75	1640
59.76	1666
59.77	1695
59.78	1666
59.79	1676
59.8	1639
59.81	1616
59.82	1613
59.83	1636
59.84	1642
59.85	1651
59.86	1671
59.87	1634
59.88	1625
59.89	1647
59.9	1658
59.91	1617
59.92	1633
59.93	1648
59.94	1600
59.95	1583
59.96	1605
59.97	1629
59.98	1634
59.99	1649
60.0	1646
60.01	1628
60.02	1612
60.03	1619
60.04	1657
60.05	1657
60.06	1629
60.07	1629
60.08	1662
60.09	1683
60.1	1644
60.11	1620
60.12	1639
60.13	1637
60.14	1595
60.15	1613
60.16	1590
60.17	1651
60.18	1585
60.19	1586
60.2	1648
60.21	1666
60.22	1623
60.23	1584
60.24	1605
60.25	1653
60.26	1681
60.27	1667
60.28	1631
60.29	1616
60.3	1619
60.31	1649
60.32	1581
60.33	1599
60.34	1661
60.35	1668
60.36	1608
60.37	1625
60.38	1594
60.39	1617
60.4	1611
60.41	1649
60.42	1634
60.43	1609
60.44	1604
60.45	1600
60.46	1657
60.47	1681
60.48	1647
60.49	1642
60.5	1645
60.51	1651
60.52	1622
60.53	1624
60.54	1610
60.55	1672
60.56	1685
60.57	1662
60.58	1638
60.59	1608
60.6	1621
60.61	1629
60.62	1678
60.63	1682
60.64	1672
60.65	1667
60.66	1670
60.67	1675
60.68	1635
60.69	1591
60.7	1629
60.71	1617
60.72	1601
60.73	1610
60.74	1637
60.75	1661
60.76	1663
60.77	1643
60.78	1659
60.79	1646
60.8	1613
60.81	1572
60.82	1620
60.83	1647
60.84	1653
60.85	1690
60.86	1636
60.87	1630
60.88	1648
60.89	1647
60.9	1653
60.91	1621
60.92	1597
60.93	1651
60.94	1635
60.95	1594
60.96	1619
60.97	1618
60.98	1604
60.99	1632
61.0	1633
61.01	1606
61.02	1619
61.03	1608
61.04	1599
61.05	1598
61.06	1634
61.07	1625
61.08	1607
61.09	1568
61.1	1581
61.11	1613
61.12	1625
61.13	1591
61.14	1626
61.15	1651
61.16	1622
61.17	1615
61.18	1608
61.19	1622
61.2	1597
61.21	1630
61.22	1616
61.23	1602
61.24	1620
61.25	1647
61.26	1630
61.27	1618
61.28	1632
61.29	1628
61.3	1623
61.31	1615
61.32	1595
61.33	1628
61.34	1625
61.35	1618
61.36	1637
61.37	1644
61.38	1613
61.39	1633
61.4	1658
61.41	1580
61.42	1613
61.43	1634
61.44	1620
61.45	1596
61.46	1596
61.47	1578
61.48	1574
61.49	1628
61.5	1663
61.51	1667
61.52	1631
61.53	1611
61.54	1628
61.55	1618
61.56	1648
61.57	1633
61.58	1618
61.59	1619
61.6	1604
61.61	1647
61.62	1639
61.63	1613
61.64	1625
61.65	1617
61.66	1644
61.67	1613
61.68	1623
61.69	1597
61.7	1644
61.71	1653
61.72	1616
61.73	1605
61.74	1555
61.75	1529
61.76	1573
61.77	1617
61.78	1662
61.79	1630
61.8	1616
61.81	1624
61.82	1674
61.83	1694
61.84	1601
61.85	1614
61.86	1631
61.87	1629
61.88	1636
61.89	1638
61.9	1590
61.91	1562
61.92	1620
61.93	1598
61.94	1604
61.95	1593
61.96	1646
61.97	1665
61.98	1628
61.99	1637
62.0	1620
62.01	1607
62.02	1600
62.03	1625
62.04	1560
62.05	1585
62.06	1619
62.07	1574
62.08	1599
62.09	1635
62.1	1614
62.11	1593
62.12	1619
62.13	1634
62.14	1625
62.15	1639
62.16	1648
62.17	1632
62.18	1636
62.19	1655
62.2	1621
62.21	1662
62.22	1645
62.23	1605
62.24	1581
62.25	1558
62.26	1641
62.27	1653
62.28	1540
62.29	1556
62.3	1562
62.31	1637
62.32	1624
62.33	1587
62.34	1625
62.35	1626
62.36	1619
62.37	1624
62.38	1637
62.39	1667
62.4	1649
62.41	1602
62.42	1621
62.43	1662
62.44	1606
62.45	1608
62.46	1611
62.47	1631
62.48	1661
62.49	1623
62.5	1642
62.51	1645
62.52	1633
62.53	1613
62.54	1611
62.55	1627
62.56	1635
62.57	1636
62.58	1616
62.59	1596
62.6	1607
62.61	1614
62.62	1646
62.63	1618
62.64	1559
62.65	1601
62.66	1594
62.67	1568
62.68	1620
62.69	1632
62.7	1619
62.71	1635
62.72	1639
62.73	1624
62.74	1665
62.75	1606
62.76	1661
62.77	1650
62.78	1607
62.79	1585
62.8	1616
62.81	1629
62.82	1583
62.83	1621
62.84	1619
62.85	1614
62.86	1619
62.87	1680
62.88	1635
62.89	1587
62.9	1651
62.91	1645
62.92	1628
62.93	1610
62.94	1614
62.95	1606
62.96	1613
62.97	1636
62.98	1611
62.99	1602
63.0	1605
63.01	1648
63.02	1682
63.03	1646
63.04	1640
63.05	1605
63.06	1621
63.07	1623
63.08	1633
63.09	1600
63.1	1646
63.11	1616
63.12	1596
63.13	1614
63.14	1618
63.15	1614
63.16	1636
63.17	1691
63.18	1654
63.19	1617
63.2	1617
63.21	1601
63.22	1573
63.23	1608
63.24	1651
63.25	1612
63.26	1628
63.27	1612
63.28	1615
63.29	1629
63.3	1600
63.31	1683
63.32	1664
63.33	1654
63.34	1630
63.35	1667
63.36	1644
63.37	1628
63.38	1692
63.39	1661
63.4	1644
63.41	1673
63.42	1670
63.43	1676
63.44	1672
63.45	1648
63.46	1696
63.47	1766
63.48	1787
63.49	1761
63.5	1735
63.51	1716
63.52	1706
63.53	1705
63.54	1753
63.55	1778
63.56	1778
63.57	1752
63.58	1763
63.59	1744
63.6	1764
63.61	1768
63.62	1799
63.63	1841
63.64	1847
63.65	1868
63.66	1925
63.67	1913
63.68	1983
63.69	2011
63.7	2035
63.71	2015
63.72	2046
63.73	2155
63.74	2217
63.75	2294
63.76	2420
63.77	2529
63.78	2586
63.79	2649
63.8	2864
63.81	3083
63.82	3229
63.83	3471
63.84	3659
63.85	3852
63.86	4133
63.87	4288
63.88	4479
63.89	4537
63.9	4589
63.91	4469
63.92	4437
63.93	4402
63.94	4270
63.95	4125
63.96	3986
63.97	3821
63.98	3768
63.99	3756
64.0	3648
64.01	3570
64.02	3486
64.03	3547
64.04	3577
64.05	3580
64.06	3570
64.07	3552
64.08	3461
64.09	3355
64.1	3274
64.11	3166
64.12	3117
64.13	3003
64.14	2879
64.15	2750
64.16	2644
64.17	2494
64.18	2425
64.19	2381
64.2	2255
64.21	2212
64.22	2234
64.23	2116
64.24	2043
64.25	1982
64.26	1998
64.27	1957
64.28	1917
64.29	1933
64.3	1888
64.31	1858
64.32	1788
64.33	1816
64.34	1803
64.35	1784
64.36	1771
64.37	1728
64.38	1764
64.39	1721
64.4	1703
64.41	1690
64.42	1736
64.43	1694
64.44	1692
64.45	1729
64.46	1690
64.47	1689
64.48	1685
64.49	1634
64.5	1627
64.51	1644
64.52	1650
64.53	1656
64.54	1621
64.55	1635
64.56	1682
64.57	1634
64.58	1587
64.59	1557
64.6	1632
64.61	1639
64.62	1630
64.63	1621
64.64	1586
64.65	1598
64.66	1663
64.67	1656
64.68	1616
64.69	1622
64.7	1645
64.71	1613
64.72	1585
64.73	1648
64.74	1694
64.75	1591
64.76	1574
64.77	1575
64.78	1589
64.79	1587
64.8	1649
64.81	1646
64.82	1633
64.83	1588
64.84	1581
64.85	1572
64.86	1569
64.87	1561
64.88	1551
64.89	1573
64.9	1592
64.91	1614
64.92	1612
64.93	1600
64.94	1546
64.95	1580
64.96	1588
64.97	1574
64.98	1616
64.99	1621
65.0	1579
65.01	1599
65.02	1605
65.03	1621
65.04	1625
65.05	1611
65.06	1601
65.07	1567
65.08	1576
65.09	1576
65.1	1583
65.11	1573
65.12	1537
65.13	1572
65.14	1558
65.15	1528
65.16	1542
65.17	1578
65.18	1557
65.19	1583
65.2	1619
65.21	1607
65.22	1540
65.23	1543
65.24	1546
65.25	1539
65.26	1570
65.27	1542
65.28	1562
65.29	1634
65.3	1616
65.31	1538
65.32	1572
65.33	1561
65.34	1594
65.35	1621
65.36	1564
65.37	1572
65.38	1583
65.39	1553
65.4	1544
65.41	1508
65.42	1550
65.43	1577
65.44	1624
65.45	1563
65.46	1567
65.47	1530
65.48	1509
65.49	1583
65.5	1538
65.51	1567
65.52	1531
65.53	1543
65.54	1552
65.55	1594
65.56	1559
65.57	1547
65.58	1549
65.59	1574
65.6	1556
65.61	1580
65.62	1607
65.63	1536
65.64	1579
65.65	1615
65.66	1524
65.67	1523
65.68	1586
65.69	1577
65.7	1600
65.71	1605
65.72	1576
65.73	1537
65.74	1561
65.75	1544
65.76	1578
65.77	1560
65.78	1540
65.79	1597
65.8	1608
65.81	1551
65.82	1564
65.83	1551
65.84	1518
65.85	1550
65.86	1547
65.87	1564
65.88	1548
65.89	1543
65.9	1543
65.91	1593
65.92	1557
65.93	1541
65.94	1548
65.95	1555
65.96	1561
65.97	1558
65.98	1588
65.99	1579
66.0	1598
66.01	1621
66.02	1554
66.03	1532
66.04	1542
66.05	1590
66.06	1594
66.07	1570
66.08	1529
66.09	1542
66.1	1551
66.11	1527
66.12	1583
66.13	1599
66.14	1561
66.15	1568
66.16	1567
66.17	1536
66.18	1542
66.19	1469
66.2	1533
66.21	1585
66.22	1538
66.23	1539
66.24	1601
66.25	1603
66.26	1547
66.27	1559
66.28	1503
66.29	1581
66.3	1534
66.31	1536
66.32	1553
66.33	1578
66.34	1536
66.35	1542
66.36	1575
66.37	1519
66.38	1552
66.39	1546
66.4	1532
66.41	1547
66.42	1497
66.43	1509
66.44	1505
66.45	1535
66.46	1557
66.47	1535
66.48	1571
66.49	1558
66.5	1557
66.51	1543
66.52	1505
66.53	1580
66.54	1563
66.55	1530
66.56	1567
66.57	1570
66.58	1526
66.59	1511
66.6	1519
66.61	1522
66.62	1562
66.63	1639
66.64	1568
66.65	1545
66.66	1615
66.67	1607
66.68	1606
66.69	1594
66.7	1642
66.71	1623
66.72	1526
66.73	1588
66.74	1589
66.75	1551
66.76	1568
66.77	1576
66.78	1571
66.79	1615
66.8	1631
66.81	1616
66.82	1574
66.83	1624
66.84	1661
66.85	1559
66.86	1574
66.87	1639
66.88	1627
66.89	1612
66.9	1592
66.91	1683
66.92	1701
66.93	1653
66.94	1708
66.95	1691
66.96	1678
66.97	1727
66.98	1711
66.99	1680
67.0	1737
67.01	1774
67.02	1787
67.03	1772
67.04	1806
67.05	1856
67.06	1942
67.07	1918
67.08	1987
67.09	2068
67.1	2170
67.11	2263
67.12	2307
67.13	2375
67.14	2438
67.15	2457
67.16	2511
67.17	2670
67.18	2749
67.19	2780
67.2	2757
67.21	2758
67.22	2755
67.23	2644
67.24	2620
67.25	2598
67.26	2486
67.27	2475
67.28	2472
67.29	2400
67.3	2374
67.31	2377
67.32	2277
67.33	2295
67.34	2319
67.35	2346
67.36	2337
67.37	2367
67.38	2337
67.39	2318
67.4	2267
67.41	2208
67.42	2239
67.43	2166
67.44	2079
67.45	2025
67.46	2012
67.47	1948
67.48	1879
67.49	1876
67.5	1891
67.51	1848
67.52	1775
67.53	1756
67.54	1735
67.55	1752
67.56	1698
67.57	1703
67.58	1755
67.59	1681
67.6	1646
67.61	1623
67.62	1695
67.63	1628
67.64	1576
67.65	1587
67.66	1611
67.67	1597
67.68	1632
67.69	1676
67.7	1643
67.71	1595
67.72	1628
67.73	1640
67.74	1611
67.75	1559
67.76	1573
67.77	1572
67.78	1572
67.79	1532
67.8	1523
67.81	1531
67.82	1548
67.83	1540
67.84	1568
67.85	1544
67.86	1579
67.87	1562
67.88	1540
67.89	1504
67.9	1510
67.91	1552
67.92	1543
67.93	1557
67.94	1547
67.95	1511
67.96	1572
67.97	1556
67.98	1513
67.99	1518
68.0	1495
68.01	1525
68.02	1521
68.03	1525
68.04	1519
68.05	1521
68.06	1503
68.07	1521
68.08	1554
68.09	1543
68.1	1524
68.11	1509
68.12	1471
68.13	1470
68.14	1488
68.15	1520
68.16	1498
68.17	1534
68.18	1504
68.19	1521
68.2	1571
68.21	1618
68.22	1584
68.23	1551
68.24	1519
68.25	1532
68.26	1537
68.27	1543
68.28	1537
68.29	1530
68.3	1533
68.31	1524
68.32	1528
68.33	1495
68.34	1509
68.35	1538
68.36	1533
68.37	1526
68.38	1522
68.39	1583
68.4	1543
68.41	1522
68.42	1493
68.43	1485
68.44	1515
68.45	1465
68.46	1492
68.47	1481
68.48	1514
68.49	1513
68.5	1489
68.51	1503
68.52	1528
68.53	1535
68.54	1550
68.55	1575
68.56	1550
68.57	1525
68.58	1528
68.59	1511
68.6	1496
68.61	1505
68.62	1480
68.63	1504
68.64	1475
68.65	1479
68.66	1499
68.67	1540
68.68	1516
68.69	1486
68.7	1518
68.71	1511
68.72	1512
68.73	1486
68.74	1488
68.75	1498
68.76	1501
68.77	1500
68.78	1523
68.79	1524
68.8	1504
68.81	1518
68.82	1529
68.83	1509
68.84	1505
68.85	1493
68.86	1491
68.87	1507
68.88	1468
68.89	1478
68.9	1511
68.91	1518
68.92	1496
68.93	1527
68.94	1553
68.95	1548
68.96	1518
68.97	1492
68.98	1514
68.99	1561
69.0	1558
69.01	1530
69.02	1498
69.03	1494
69.04	1487
69.05	1475
69.06	1468
69.07	1477
69.08	1499
69.09	1484
69.1	1453
69.11	1485
69.12	1464
69.13	1474
69.14	1473
69.15	1472
69.16	1463
69.17	1467
69.18	1494
69.19	1462
69.2	1468
69.21	1474
69.22	1494
69.23	1507
69.24	1470
69.25	1434
69.26	1478
69.27	1525
69.28	1528
69.29	1506
69.3	1509
69.31	1539
69.32	1505
69.33	1496
69.34	1502
69.35	1477
69.36	1506
69.37	1507
69.38	1500
69.39	1473
69.4	1472
69.41	1493
69.42	1482
69.43	1481
69.44	1449
69.45	1523
69.46	1483
69.47	1480
69.48	1537
69.49	1511
69.5	1478
69.51	1470
69.52	1498
69.53	1531
69.54	1569
69.55	1515
69.56	1504
69.57	1473
69.58	1493
69.59	1480
69.6	1472
69.61	1436
69.62	1458
69.63	1465
69.64	1443
69.65	1465
69.66	1488
69.67	1496
69.68	1438
69.69	1432
69.7	1444
69.71	1446
69.72	1452
69.73	1530
69.74	1478
69.75	1497
69.76	1506
69.77	1475
69.78	1465
69.79	1515
69.8	1542
69.81	1482
69.82	1467
69.83	1478
69.84	1483
69.85	1480
69.86	1537
69.87	1501
69.88	1478
69.89	1457
69.9	1508
69.91	1477
69.92	1451
69.93	1429
69.94	1472
69.95	1445
69.96	1423
69.97	1447
69.98	1441
69.99	1451
70.0	1522
70.01	1538
70.02	1516
70.03	1515
70.04	1494
70.05	1483
70.06	1478
70.07	1472
70.08	1500
70.09	1443
70.1	1488
70.11	1497
70.12	1504
70.13	1506
70.14	1518
70.15	1506
70.16	1468
70.17	1452
70.18	1499
70.19	1500
70.2	1490
70.21	1482
70.22	1489
70.23	1495
70.24	1458
70.25	1424
70.26	1479
70.27	1515
70.28	1510
70.29	1487
70.3	1491
70.31	1511
70.32	1494
70.33	1486
70.34	1478
70.35	1496
70.36	1525
70.37	1468
70.38	1479
70.39	1482
70.4	1472
70.41	1491
70.42	1461
70.43	1452
70.44	1458
70.45	1439
70.46	1466
70.47	1501
70.48	1494
70.49	1515
70.5	1519
70.51	1531
70.52	1459
70.53	1414
70.54	1439
70.55	1490
70.56	1535
70.57	1502
70.58	1484
70.59	1476
70.6	1454
70.61	1475
70.62	1480
70.63	1481
70.64	1495
70.65	1535
70.66	1497
70.67	1471
70.68	1485
70.69	1480
70.7	1475
70.71	1445
70.72	1478
70.73	1423
70.74	1475
70.75	1455
70.76	1462
70.77	1462
70.78	1407
70.79	1495
70.8	1503
70.81	1472
70.82	1461
70.83	1491
70.84	1499
70.85	1498
70.86	1466
70.87	1443
70.88	1451
70.89	1464
70.9	1513
70.91	1478
70.92	1447
70.93	1454
70.94	1440
70.95	1484
70.96	1509
70.97	1468
70.98	1474
70.99	1451
71.0	1423
71.01	1447
71.02	1454
71.03	1507
71.04	1517
71.05	1475
71.06	1510
71.07	1452
71.08	1467
71.09	1469
71.1	1437
71.11	1463
71.12	1464
71.13	1468
71.14	1467
71.15	1476
71.16	1480
71.17	1478
71.18	1469
71.19	1429
71.2	1454
71.21	1496
71.22	1476
71.23	1451
71.24	1482
71.25	1434
71.26	1477
71.27	1549
71.28	1521
71.29	1476
71.3	1451
71.31	1466
71.32	1485
71.33	1477
71.34	1479
71.35	1483
71.36	1468
71.37	1445
71.38	1463
71.39	1459
71.4	1488
71.41	1478
71.42	1435
71.43	1437
71.44	1486
71.45	1493
71.46	1468
71.47	1434
71.48	1442
71.49	1456
71.5	1509
71.51	1484
71.52	1433
71.53	1412
71.54	1439
71.55	1480
71.56	1492
71.57	1462
71.58	1444
71.59	1472
71.6	1481
71.61	1448
71.62	1478
71.63	1488
71.64	1438
71.65	1450
71.66	1475
71.67	1495
71.68	1481
71.69	1454
71.7	1436
71.71	1462
71.72	1474
71.73	1468
71.74	1462
71.75	1448
71.76	1457
71.77	1420
71.78	1486
71.79	1502
71.8	1480
71.81	1467
71.82	1487
71.83	1474
71.84	1432
71.85	1478
71.86	1528
71.87	1481
71.88	1432
71.89	1457
71.9	1460
71.91	1469
71.92	1444
71.93	1442
71.94	1430
71.95	1442
71.96	1450
71.97	1507
71.98	1443
71.99	1451
72.0	1477
72.01	1488
72.02	1477
72.03	1465
72.04	1468
72.05	1462
72.06	1469
72.07	1483
72.08	1507
72.09	1490
72.1	1469
72.11	1479
72.12	1494
72.13	1482
72.14	1436
72.15	1450
72.16	1462
72.17	1449
72.18	1426
72.19	1437
72.2	1446
72.21	1462
72.22	1498
72.23	1449
72.24	1467
72.25	1460
72.26	1491
72.27	1489
72.28	1467
72.29	1445
72.3	1437
72.31	1423
72.32	1434
72.33	1448
72.34	1443
72.35	1418
72.36	1413
72.37	1408
72.38	1419
72.39	1457
72.4	1431
72.41	1438
72.42	1446
72.43	1410
72.44	1470
72.45	1504
72.46	1481
72.47	1447
72.48	1460
72.49	1459
72.5	1458
72.51	1452
72.52	1469
72.53	1463
72.54	1459
72.55	1439
72.56	1430
72.57	1446
72.58	1418
72.59	1436
72.6	1438
72.61	1481
72.62	1471
72.63	1419
72.64	1472
72.65	1510
72.66	1488
72.67	1459
72.68	1491
72.69	1483
72.7	1434
72.71	1463
72.72	1473
72.73	1422
72.74	1441
72.75	1448
72.76	1446
72.77	1483
72.78	1511
72.79	1467
72.8	1466
72.81	1486
72.82	1442
72.83	1443
72.84	1442
72.85	1490
72.86	1463
72.87	1477
72.88	1474
72.89	1437
72.9	1440
72.91	1453
72.92	1432
72.93	1431
72.94	1427
72.95	1433
72.96	1426
72.97	1442
72.98	1450
72.99	1465
73.0	1483
73.01	1517
73.02	1521
73.03	1498
73.04	1456
73.05	1475
73.06	1454
73.07	1432
73.08	1436
73.09	1413
73.1	1426
73.11	1415
73.12	1414
73.13	1459
73.14	1488
73.15	1527
73.16	1507
73.17	1457
73.18	1437
73.19	1461
73.2	1455
73.21	1471
73.22	1469
73.23	1482
73.24	1460
73.25	1453
73.26	1436
73.27	1423
73.28	1436
73.29	1478
73.3	1412
73.31	1410
73.32	1415
73.33	1470
73.34	1440
73.35	1419
73.36	1429
73.37	1419
73.38	1496
73.39	1475
73.4	1439
73.41	1433
73.42	1422
73.43	1427
73.44	1468
73.45	1474
73.46	1454
73.47	1458
73.48	1439
73.49	1442
73.5	1429
73.51	1438
73.52	1443
73.53	1456
73.54	1404
73.55	1410
73.56	1457
73.57	1495
73.58	1454
73.59	1439
73.6	1454
73.61	1449
73.62	1440
73.63	1479
73.64	1461
73.65	1455
73.66	1427
73.67	1444
73.68	1392
73.69	1397
73.7	1447
73.71	1500
73.72	1443
73.73	1429
73.74	1470
73.75	1487
73.76	1483
73.77	1478
73.78	1509
73.79	1441
73.8	1404
73.81	1433
73.82	1452
73.83	1481
73.84	1484
73.85	1460
73.86	1477
73.87	1435
73.88	1421
73.89	1443
73.9	1472
73.91	1477
73.92	1427
73.93	1445
73.94	1427
73.95	1480
73.96	1452
73.97	1466
73.98	1480
73.99	1453
74.0	1422
74.01	1431
74.02	1444
74.03	1426
74.04	1464
74.05	1430
74.06	1433
74.07	1461
74.08	1479
74.09	1440
74.1	1472
74.11	1468
74.12	1467
74.13	1449
74.14	1398
74.15	1432
74.16	1453
74.17	1443
74.18	1492
74.19	1455
74.2	1442
74.21	1464
74.22	1455
74.23	1469
74.24	1484
74.25	1456
74.26	1475
74.27	1437
74.28	1459
74.29	1421
74.3	1397
74.31	1438
74.32	1409
74.33	1429
74.34	1469
74.35	1395
74.36	1400
74.37	1462
74.38	1549
74.39	1485
74.4	1453
74.41	1428
74.42	1393
74.43	1419
74.44	1460
74.45	1452
74.46	1441
74.47	1463
74.48	1482
74.49	1492
74.5	1428
74.51	1481
74.52	1473
74.53	1413
74.54	1395
74.55	1443
74.56	1426
74.57	1448
74.58	1459
74.59	1469
74.6	1447
74.61	1441
74.62	1456
74.63	1481
74.64	1510
74.65	1490
74.66	1434
74.67	1382
74.68	1410
74.69	1438
74.7	1449
74.71	1445
74.72	1422
74.73	1426
74.74	1409
74.75	1424
74.76	1459
74.77	1523
74.78	1461
74.79	1470
74.8	1428
74.81	1433
74.82	1443
74.83	1456
74.84	1493
74.85	1480
74.86	1455
74.87	1424
74.88	1466
74.89	1440
74.9	1449
74.91	1482
74.92	1456
74.93	1439
74.94	1466
74.95	1416
74.96	1425
74.97	1426
74.98	1419
74.99	1416
75.0	1459
75.01	1462
75.02	1474
75.03	1426
75.04	1417
75.05	1435
75.06	1404
75.07	1410
75.08	1422
75.09	1430
75.1	1451
75.11	1449
75.12	1453
75.13	1459
75.14	1448
75.15	1465
75.16	1494
75.17	1424
75.18	1412
75.19	1429
75.2	1430
75.21	1417
75.22	1444
75.23	1463
75.24	1473
75.25	1484
75.26	1447
75.27	1443
75.28	1454
75.29	1449
75.3	1473
75.31	1469
75.32	1485
75.33	1482
75.34	1457
75.35	1447
75.36	1521
75.37	1488
75.38	1465
75.39	1487
75.4	1480
75.41	1488
75.42	1480
75.43	1488
75.44	1502
75.45	1521
75.46	1511
75.47	1511
75.48	1559
75.49	1580
75.5	1535
75.51	1574
75.52	1614
75.53	1625
75.54	1605
75.55	1620
75.56	1666
75.57	1707
75.58	1700
75.59	1729
75.6	1776
75.61	1836
75.62	1891
75.63	1909
75.64	1910
75.65	1941
75.66	1881
75.67	1830
75.68	1803
75.69	1811
75.7	1784
75.71	1761
75.72	1769
75.73	1688
75.74	1666
75.75	1696
75.76	1718
75.77	1698
75.78	1713
75.79	1725
75.8	1707
75.81	1671
75.82	1723
75.83	1722
75.84	1675
75.85	1685
75.86	1661
75.87	1722
75.88	1689
75.89	1703
75.9	1651
75.91	1630
75.92	1604
75.93	1588
75.94	1564
75.95	1577
75.96	1576
75.97	1604
75.98	1564
75.99	1517
76.0	1534
76.01	1498
76.02	1487
76.03	1532
76.04	1582
76.05	1590
76.06	1537
76.07	1513
76.08	1530
76.09	1469
76.1	1509
76.11	1486
76.12	1481
76.13	1492
76.14	1487
76.15	1490
76.16	1456
76.17	1417
76.18	1467
76.19	1492
76.2	1492
76.21	1488
76.22	1485
76.23	1451
76.24	1449
76.25	1434
76.26	1444
76.27	1472
76.28	1502
76.29	1488
76.3	1490
76.31	1501
76.32	1534
76.33	1516
76.34	1505
76.35	1502
76.36	1508
76.37	1502
76.38	1495
76.39	1497
76.4	1499
76.41	1555
76.42	1483
76.43	1475
76.44	1506
76.45	1503
76.46	1566
76.47	1543
76.48	1524
76.49	1573
76.5	1528
76.51	1572
76.52	1565
76.53	1614
76.54	1689
76.55	1673
76.56	1640
76.57	1670
76.58	1711
76.59	1736
76.6	1760
76.61	1785
76.62	1823
76.63	1832
76.64	1911
76.65	1874
76.66	1933
76.67	1918
76.68	1941
76.69	1937
76.7	1923
76.71	1894
76.72	1884
76.73	1844
76.74	1851
76.75	1882
76.76	1866
76.77	1875
76.78	1837
76.79	1809
76.8	1847
76.81	1811
76.82	1791
76.83	1797
76.84	1812
76.85	1822
76.86	1840
76.87	1813
76.88	1789
76.89	1785
76.9	1753
76.91	1765
76.92	1720
76.93	1754
76.94	1735
76.95	1712
76.96	1681
76.97	1692
76.98	1649
76.99	1621
77.0	1619
77.01	1602
77.02	1623
77.03	1573
77.04	1566
77.05	1538
77.06	1566
77.07	1507
77.08	1510
77.09	1568
77.1	1519
77.11	1510
77.12	1526
77.13	1455
77.14	1466
77.15	1477
77.16	1488
77.17	1501
77.18	1508
77.19	1510
77.2	1522
77.21	1506
77.22	1501
77.23	1505
77.24	1505
77.25	1490
77.26	1473
77.27	1504
77.28	1434
77.29	1445
77.3	1464
77.31	1435
77.32	1447
77.33	1406
77.34	1396
77.35	1416
77.36	1420
77.37	1366
77.38	1431
77.39	1443
77.4	1424
77.41	1449
77.42	1444
77.43	1435
77.44	1428
77.45	1480
77.46	1492
77.47	1461
77.48	1435
77.49	1427
77.5	1426
77.51	1406
77.52	1433
77.53	1475
77.54	1411
77.55	1444
77.56	1450
77.57	1384
77.58	1404
77.59	1467
77.6	1433
77.61	1420
77.62	1453
77.63	1439
77.64	1383
77.65	1417
77.66	1463
77.67	1408
77.68	1419
77.69	1423
77.7	1397
77.71	1374
77.72	1380
77.73	1385
77.74	1428
77.75	1449
77.76	1441
77.77	1437
77.78	1431
77.79	1427
77.8	1405
77.81	1362
77.82	1402
77.83	1476
77.84	1463
77.85	1404
77.86	1412
77.87	1429
77.88	1422
77.89	1428
77.9	1429
77.91	1438
77.92	1442
77.93	1366
77.94	1381
77.95	1405
77.96	1381
77.97	1375
77.98	1385
77.99	1406
78.0	1398
78.01	1360
78.02	1386
78.03	1443
78.04	1416
78.05	1376
78.06	1362
78.07	1400
78.08	1391
78.09	1424
78.1	1444
78.11	1406
78.12	1409
78.13	1405
78.14	1407
78.15	1411
78.16	1399
78.17	1431
78.18	1436
78.19	1412
78.2	1389
78.21	1387
78.22	1399
78.23	1427
78.24	1384
78.25	1361
78.26	1399
78.27	1418
78.28	1415
78.29	1399
78.3	1390
78.31	1394
78.32	1390
78.33	1394
78.34	1420
78.35	1427
78.36	1366
78.37	1375
78.38	1404
78.39	1392
78.4	1395
78.41	1427
78.42	1387
78.43	1411
78.44	1393
78.45	1439
78.46	1454
78.47	1426
78.48	1362
78.49	1359
78.5	1410
78.51	1445
78.52	1418
78.53	1410
78.54	1449
78.55	1393
78.56	1410
78.57	1423
78.58	1424
78.59	1449
78.6	1413
78.61	1406
78.62	1394
78.63	1408
78.64	1442
78.65	1409
78.66	1388
78.67	1402
78.68	1392
78.69	1369
78.7	1363
78.71	1409
78.72	1427
78.73	1423
78.74	1399
78.75	1409
78.76	1444
78.77	1442
78.78	1417
78.79	1391
78.8	1415
78.81	1400
78.82	1411
78.83	1419
78.84	1377
78.85	1414
78.86	1409
78.87	1371
78.88	1402
78.89	1392
78.9	1362
78.91	1383
78.92	1393
78.93	1424
78.94	1406
78.95	1363
78.96	1431
78.97	1443
78.98	1393
78.99	1385
79.0	1424
79.01	1424
79.02	1399
79.03	1435
79.04	1450
79.05	1407
79.06	1449
79.07	1458
79.08	1413
79.09	1413
79.1	1418
79.11	1369
79.12	1380
79.13	1397
79.14	1410
79.15	1435
79.16	1387
79.17	1364
79.18	1356
79.19	1365
79.2	1353
79.21	1385
79.22	1398
79.23	1419
79.24	1381
79.25	1408
79.26	1392
79.27	1377
79.28	1395
79.29	1422
79.3	1418
79.31	1382
79.32	1369
79.33	1389
79.34	1374
79.35	1390
79.36	1385
79.37	1392
79.38	1401
79.39	1406
79.4	1416
79.41	1372
79.42	1362
79.43	1389
79.44	1348
79.45	1385
79.46	1411
79.47	1416
79.48	1397
79.49	1383
79.5	1372
79.51	1368
79.52	1420
79.53	1443
79.54	1422
79.55	1378
79.56	1378
79.57	1403
79.58	1399
79.59	1366
79.6	1373
79.61	1381
79.62	1380
79.63	1360
79.64	1359
79.65	1413
79.66	1403
79.67	1368
79.68	1386
79.69	1393
79.7	1390
79.71	1372
79.72	1393
79.73	1412
79.74	1384
79.75	1347
79.76	1392
79.77	1358
79.78	1360
79.79	1442
79.8	1438
79.81	1363
79.82	1398
79.83	1402
79.84	1359
79.85	1421
79.86	1369
79.87	1362
79.88	1407
79.89	1440
79.9	1371
79.91	1399
79.92	1386
79.93	1410
79.94	1454
79.95	1455
79.96	1440
79.97	1430
79.98	1369
79.99	1345
80.0	1360
80.01	1396
80.02	1418
80.03	1397
80.04	1400
80.05	1385
80.06	1415
80.07	1433
80.08	1373
80.09	1387
80.1	1399
80.11	1458
80.12	1447
80.13	1436
80.14	1415
80.15	1396
80.16	1415
80.17	1403
80.18	1393
80.19	1398
80.2	1441
80.21	1426
80.22	1371
80.23	1359
80.24	1412
80.25	1409
80.26	1386
80.27	1410
80.28	1394
80.29	1423
80.3	1408
80.31	1401
80.32	1432
80.33	1439
80.34	1404
80.35	1387
80.36	1417
80.37	1416
80.38	1396
80.39	1407
80.4	1433
80.41	1453
80.42	1429
80.43	1420
80.44	1415
80.45	1421
80.46	1391
80.47	1433
80.48	1436
80.49	1442
80.5	1458
80.51	1442
80.52	1472
80.53	1457
80.54	1503
80.55	1481
80.56	1474
80.57	1503
80.58	1507
80.59	1519
80.6	1562
80.61	1562
80.62	1585
80.63	1605
80.64	1682
80.65	1714
80.66	1755
80.67	1777
80.68	1841
80.69	1883
80.7	1954
80.71	2099
80.72	2121
80.73	2139
80.74	2158
80.75	2211
80.76	2188
80.77	2201
80.78	2155
80.79	2086
80.8	2043
80.81	1993
80.82	1915
80.83	1888
80.84	1899
80.85	1853
80.86	1812
80.87	1791
80.88	1818
80.89	1819
80.9	1760
80.91	1716
80.92	1791
80.93	1780
80.94	1753
80.95	1776
80.96	1814
80.97	1839
80.98	1861
80.99	1846
81.0	1860
81.01	1896
81.02	1832
81.03	1773
81.04	1726
81.05	1710
81.06	1676
81.07	1684
81.08	1666
81.09	1611
81.1	1589
81.11	1531
81.12	1550
81.13	1516
81.14	1524
81.15	1514
81.16	1464
81.17	1452
81.18	1439
81.19	1455
81.2	1429
81.21	1471
81.22	1494
81.23	1476
81.24	1466
81.25	1481
81.26	1462
81.27	1428
81.28	1452
81.29	1414
81.3	1389
81.31	1397
81.32	1453
81.33	1465
81.34	1472
81.35	1420
81.36	1388
81.37	1345
81.38	1403
81.39	1438
81.4	1399
81.41	1386
81.42	1399
81.43	1429
81.44	1414
81.45	1432
81.46	1459
81.47	1426
81.48	1417
81.49	1370
81.5	1382
81.51	1396
81.52	1420
81.53	1399
81.54	1438
81.55	1436
81.56	1394
81.57	1408
81.58	1388
81.59	1387
81.6	1388
81.61	1323
81.62	1332
81.63	1386
81.64	1401
81.65	1365
81.66	1365
81.67	1386
81.68	1371
81.69	1349
81.7	1365
81.71	1395
81.72	1384
81.73	1342
81.74	1407
81.75	1387
81.76	1394
81.77	1412
81.78	1340
81.79	1350
81.8	1369
81.81	1379
81.82	1362
81.83	1332
81.84	1380
81.85	1426
81.86	1427
81.87	1378
81.88	1383
81.89	1392
81.9	1394
81.91	1343
81.92	1367
81.93	1361
81.94	1359
81.95	1384
81.96	1401
81.97	1367
81.98	1383
81.99	1400
82.0	1370
82.01	1362
82.02	1363
82.03	1374
82.04	1371
82.05	1382
82.06	1344
82.07	1349
82.08	1348
82.09	1353
82.1	1351
82.11	1358
82.12	1387
82.13	1374
82.14	1373
82.15	1365
82.16	1352
82.17	1343
82.18	1389
82.19	1377
82.2	1354
82.21	1388
82.22	1376
82.23	1361
82.24	1411
82.25	1365
82.26	1334
82.27	1362
82.28	1363
82.29	1354
82.3	1377
82.31	1365
82.32	1346
82.33	1393
82.34	1445
82.35	1405
82.36	1406
82.37	1396
82.38	1359
82.39	1366
82.4	1359
82.41	1346
82.42	1347
82.43	1348
82.44	1390
82.45	1400
82.46	1380
82.47	1383
82.48	1370
82.49	1342
82.5	1378
82.51	1413
82.52	1376
82.53	1358
82.54	1348
82.55	1310
82.56	1301
82.57	1297
82.58	1338
82.59	1358
82.6	1364
82.61	1396
82.62	1358
82.63	1340
82.64	1360
82.65	1383
82.66	1361
82.67	1347
82.68	1368
82.69	1385
82.7	1385
82.71	1347
82.72	1355
82.73	1385
82.74	1340
82.75	1364
82.76	1376
82.77	1337
82.78	1384
82.79	1389
82.8	1422
82.81	1372
82.82	1361
82.83	1380
82.84	1384
82.85	1348
82.86	1327
82.87	1367
82.88	1355
82.89	1351
82.9	1361
82.91	1348
82.92	1367
82.93	1383
82.94	1376
82.95	1363
82.96	1361
82.97	1364
82.98	1316
82.99	1329
83.0	1363
83.01	1383
83.02	1370
83.03	1331
83.04	1328
83.05	1362
83.06	1406
83.07	1395
83.08	1374
83.09	1383
83.1	1375
83.11	1355
83.12	1339
83.13	1369
83.14	1363
83.15	1330
83.16	1326
83.17	1352
83.18	1380
83.19	1381
83.2	1383
83.21	1423
83.22	1358
83.23	1324
83.24	1391
83.25	1382
83.26	1380
83.27	1372
83.28	1386
83.29	1414
83.3	1382
83.31	1407
83.32	1398
83.33	1399
83.34	1412
83.35	1433
83.36	1389
83.37	1395
83.38	1395
83.39	1397
83.4	1389
83.41	1356
83.42	1366
83.43	1368
83.44	1402
83.45	1422
83.46	1428
83.47	1393
83.48	1419
83.49	1392
83.5	1433
83.51	1436
83.52	1405
83.53	1409
83.54	1413
83.55	1451
83.56	1462
83.57	1454
83.58	1461
83.59	1498
83.6	1452
83.61	1484
83.62	1503
83.63	1502
83.64	1526
83.65	1525
83.66	1553
83.67	1582
83.68	1632
83.69	1686
83.7	1711
83.71	1709
83.72	1806
83.73	1844
83.74	1877
83.75	1896
83.76	1899
83.77	1876
83.78	1888
83.79	1915
83.8	1873
83.81	1802
83.82	1781
83.83	1813
83.84	1748
83.85	1759
83.86	1789
83.87	1768
83.88	1744
83.89	1721
83.9	1689
83.91	1676
83.92	1663
83.93	1652
83.94	1664
83.95	1675
83.96	1649
83.97	1622
83.98	1603
83.99	1667
84.0	1665
84.01	1666
84.02	1710
84.03	1704
84.04	1668
84.05	1678
84.06	1688
84.07	1706
84.08	1683
84.09	1662
84.1	1622
84.11	1581
84.12	1567
84.13	1550
84.14	1563
84.15	1556
84.16	1551
84.17	1538
84.18	1492
84.19	1485
84.2	1477
84.21	1438
84.22	1452
84.23	1461
84.24	1440
84.25	1451
84.26	1483
84.27	1456
84.28	1413
84.29	1431
84.3	1420
84.31	1449
84.32	1420
84.33	1368
84.34	1412
84.35	1474
84.36	1399
84.37	1378
84.38	1405
84.39	1402
84.4	1402
84.41	1395
84.42	1342
84.43	1300
84.44	1313
84.45	1377
84.46	1373
84.47	1390
84.48	1367
84.49	1351
84.5	1407
84.51	1399
84.52	1412
84.53	1351
84.54	1340
84.55	1362
84.56	1368
84.57	1384
84.58	1399
84.59	1392
84.6	1379
84.61	1359
84.62	1337
84.63	1352
84.64	1367
84.65	1344
84.66	1354
84.67	1357
84.68	1349
84.69	1368
84.7	1417
84.71	1365
84.72	1360
84.73	1369
84.74	1353
84.75	1320
84.76	1332
84.77	1337
84.78	1356
84.79	1337
84.8	1330
84.81	1330
84.82	1356
84.83	1358
84.84	1325
84.85	1296
84.86	1335
84.87	1353
84.88	1383
84.89	1395
84.9	1384
84.91	1357
84.92	1293
84.93	1313
84.94	1294
84.95	1290
84.96	1313
84.97	1287
84.98	1309
84.99	1311
85.0	1300
85.01	1307
85.02	1327
85.03	1329
85.04	1355
85.05	1359
85.06	1360
85.07	1321
85.08	1313
85.09	1345
85.1	1363
85.11	1371
85.12	1337
85.13	1327
85.14	1360
85.15	1388
85.16	1371
85.17	1324
85.18	1285
85.19	1313
85.2	1321
85.21	1353
85.22	1374
85.23	1367
85.24	1343
85.25	1311
85.26	1281
85.27	1279
85.28	1351
85.29	1339
85.3	1302
85.31	1300
85.32	1308
85.33	1311
85.34	1317
85.35	1324
85.36	1297
85.37	1305
85.38	1309
85.39	1326
85.4	1332
85.41	1324
85.42	1335
85.43	1345
85.44	1337
85.45	1306
85.46	1330
85.47	1361
85.48	1358
85.49	1355
85.5	1333
85.51	1395
85.52	1348
85.53	1297
85.54	1333
85.55	1313
85.56	1322
85.57	1324
85.58	1331
85.59	1305
85.6	1305
85.61	1287
85.62	1320
85.63	1324
85.64	1342
85.65	1337
85.66	1322
85.67	1340
85.68	1339
85.69	1327
85.7	1315
85.71	1307
85.72	1330
85.73	1301
85.74	1300
85.75	1320
85.76	1320
85.77	1319
85.78	1279
85.79	1301
85.8	1315
85.81	1327
85.82	1307
85.83	1332
85.84	1324
85.85	1329
85.86	1357
85.87	1355
85.88	1346
85.89	1380
85.9	1360
85.91	1326
85.92	1307
85.93	1320
85.94	1337
85.95	1351
85.96	1309
85.97	1309
85.98	1279
85.99	1286
86.0	1321
86.01	1322
86.02	1358
86.03	1299
86.04	1287
86.05	1334
86.06	1309
86.07	1352
86.08	1405
86.09	1370
86.1	1354
86.11	1353
86.12	1334
86.13	1349
86.14	1337
86.15	1359
86.16	1341
86.17	1285
86.18	1302
86.19	1319
86.2	1313
86.21	1306
86.22	1305
86.23	1307
86.24	1303
86.25	1339
86.26	1333
86.27	1283
86.28	1286
86.29	1327
86.3	1358
86.31	1337
86.32	1316
86.33	1323
86.34	1326
86.35	1340
86.36	1325
86.37	1300
86.38	1333
86.39	1344
86.4	1355
86.41	1359
86.42	1317
86.43	1315
86.44	1343
86.45	1368
86.46	1333
86.47	1339
86.48	1336
86.49	1321
86.5	1317
86.51	1332
86.52	1340
86.53	1340
86.54	1323
86.55	1292
86.56	1285
86.57	1315
86.58	1326
86.59	1328
86.6	1317
86.61	1324
86.62	1343
86.63	1387
86.64	1342
86.65	1333
86.66	1348
86.67	1344
86.68	1313
86.69	1306
86.7	1311
86.71	1270
86.72	1238
86.73	1299
86.74	1313
86.75	1335
86.76	1351
86.77	1355
86.78	1320
86.79	1294
86.8	1323
86.81	1290
86.82	1297
86.83	1348
86.84	1340
86.85	1313
86.86	1279
86.87	1273
86.88	1280
86.89	1329
86.9	1359
86.91	1349
86.92	1354
86.93	1354
86.94	1324
86.95	1307
86.96	1332
86.97	1326
86.98	1320
86.99	1314
87.0	1327
87.01	1345
87.02	1313
87.03	1315
87.04	1328
87.05	1307
87.06	1325
87.07	1320
87.08	1305
87.09	1284
87.1	1324
87.11	1346
87.12	1348
87.13	1324
87.14	1295
87.15	1316
87.16	1346
87.17	1373
87.18	1370
87.19	1325
87.2	1323
87.21	1353
87.22	1368
87.23	1352
87.24	1344
87.25	1316
87.26	1295
87.27	1298
87.28	1330
87.29	1328
87.3	1326
87.31	1364
87.32	1348
87.33	1315
87.34	1310
87.35	1320
87.36	1329
87.37	1338
87.38	1339
87.39	1334
87.4	1310
87.41	1305
87.42	1320
87.43	1343
87.44	1324
87.45	1313
87.46	1337
87.47	1333
87.48	1322
87.49	1346
87.5	1352
87.51	1329
87.52	1317
87.53	1323
87.54	1353
87.55	1338
87.56	1325
87.57	1303
87.58	1314
87.59	1338
87.6	1321
87.61	1314
87.62	1319
87.63	1313
87.64	1268
87.65	1274
87.66	1250
87.67	1296
87.68	1324
87.69	1329
87.7	1359
87.71	1360
87.72	1331
87.73	1302
87.74	1288
87.75	1310
87.76	1329
87.77	1327
87.78	1326
87.79	1299
87.8	1274
87.81	1295
87.82	1306
87.83	1305
87.84	1299
87.85	1326
87.86	1320
87.87	1305
87.88	1338
87.89	1326
87.9	1317
87.91	1309
87.92	1291
87.93	1304
87.94	1299
87.95	1323
87.96	1330
87.97	1326
87.98	1342
87.99	1346
88.0	1348
88.01	1336
88.02	1320
88.03	1326
88.04	1341
88.05	1311
88.06	1324
88.07	1320
88.08	1303
88.09	1311
88.1	1335
88.11	1335
88.12	1335
88.13	1325
88.14	1319
88.15	1328
88.16	1388
88.17	1387
88.18	1319
88.19	1299
88.2	1304
88.21	1315
88.22	1321
88.23	1307
88.24	1316
88.25	1312
88.26	1293
88.27	1302
88.28	1325
88.29	1330
88.3	1329
88.31	1322
88.32	1298
88.33	1310
88.34	1302
88.35	1310
88.36	1324
88.37	1305
88.38	1304
88.39	1282
88.4	1284
88.41	1309
88.42	1317
88.43	1288
88.44	1288
88.45	1319
88.46	1340
88.47	1323
88.48	1283
88.49	1284
88.5	1321
88.51	1328
88.52	1320
88.53	1323
88.54	1289
88.55	1302
88.56	1320
88.57	1316
88.58	1337
88.59	1335
88.6	1331
88.61	1325
88.62	1304
88.63	1300
88.64	1305
88.65	1319
88.66	1329
88.67	1338
88.68	1336
88.69	1324
88.7	1330
88.71	1340
88.72	1349
88.73	1337
88.74	1344
88.75	1380
88.76	1366
88.77	1325
88.78	1318
88.79	1313
88.8	1326
88.81	1327
88.82	1297
88.83	1298
88.84	1342
88.85	1376
88.86	1337
88.87	1301
88.88	1300
88.89	1297
88.9	1295
88.91	1289
88.92	1293
88.93	1293
88.94	1316
88.95	1311
88.96	1315
88.97	1311
88.98	1303
88.99	1319
89.0	1266
89.01	1274
89.02	1308
89.03	1303
89.04	1298
89.05	1319
89.06	1320
89.07	1291
89.08	1292
89.09	1334
89.1	1350
89.11	1353
89.12	1360
89.13	1337
89.14	1313
89.15	1304
89.16	1320
89.17	1342
89.18	1329
89.19	1363
89.2	1362
89.21	1330
89.22	1331
89.23	1341
89.24	1333
89.25	1325
89.26	1339
89.27	1350
89.28	1332
89.29	1299
89.3	1263
89.31	1273
89.32	1311
89.33	1321
89.34	1320
89.35	1303
89.36	1302
89.37	1317
89.38	1317
89.39	1301
89.4	1280
89.41	1273
89.42	1286
89.43	1298
89.44	1297
89.45	1311
89.46	1346
89.47	1348
89.48	1350
89.49	1337
89.5	1325
89.51	1315
89.52	1295
89.53	1305
89.54	1328
89.55	1308
89.56	1303
89.57	1337
89.58	1374
89.59	1360
89.6	1360
89.61	1349
89.62	1329
89.63	1338
89.64	1337
89.65	1310
89.66	1302
89.67	1301
89.68	1296
89.69	1305
89.7	1317
89.71	1311
89.72	1312
89.73	1341
89.74	1337
89.75	1325
89.76	1308
89.77	1295
89.78	1324
89.79	1359
89.8	1364
89.81	1382
89.82	1372
89.83	1337
89.84	1339
89.85	1365
89.86	1336
89.87	1307
89.88	1312
89.89	1315
89.9	1317
89.91	1312
89.92	1306
89.93	1302
89.94	1303
89.95	1306
89.96	1328
89.97	1351
89.98	1356
89.99	1346
90.0	1346
90.01	1332
90.02	1334
90.03	1342
90.04	1323
90.05	1298
90.06	1286
90.07	1286
90.08	1312
90.09	1343
90.1	1360
90.11	1351
90.12	1341
90.13	1329
90.14	1311
90.15	1283
90.16	1290
90.17	1322
90.18	1319
90.19	1333
90.2	1314
90.21	1289
90.22	1305
90.23	1317
90.24	1315
90.25	1328
90.26	1327
90.27	1344
90.28	1335
90.29	1321
90.3	1331
90.31	1307
90.32	1312
90.33	1334
90.34	1344
90.35	1334
90.36	1305
90.37	1326
90.38	1337
90.39	1323
90.4	1334
90.41	1360
90.42	1366
90.43	1360
90.44	1359
90.45	1327
90.46	1307
90.47	1303
90.48	1308
90.49	1325
90.5	1318
90.51	1323
90.52	1332
90.53	1324
90.54	1332
90.55	1352
90.56	1344
90.57	1319
90.58	1324
90.59	1332
90.6	1348
90.61	1348
90.62	1337
90.63	1331
90.64	1306
90.65	1326
90.66	1339
90.67	1326
90.68	1323
90.69	1341
90.7	1354
90.71	1347
90.72	1336
90.73	1328
90.74	1323
90.75	1328
90.76	1331
90.77	1341
90.78	1350
90.79	1340
90.8	1333
90.81	1337
90.82	1342
90.83	1323
90.84	1305
90.85	1326
90.86	1338
90.87	1337
90.88	1348
90.89	1327
90.9	1305
90.91	1320
90.92	1329
90.93	1309
90.94	1301
90.95	1336
90.96	1346
90.97	1332
90.98	1324
90.99	1299
91.0	1302
91.01	1322
91.02	1318
91.03	1337
91.04	1353
91.05	1332
91.06	1305
91.07	1320
91.08	1360
91.09	1368
91.1	1369
91.11	1381
91.12	1363
91.13	1344
91.14	1343
91.15	1328
91.16	1321
91.17	1333
91.18	1359
91.19	1383
91.2	1365
91.21	1336
91.22	1335
91.23	1334
91.24	1341
91.25	1345
91.26	1345
91.27	1378
91.28	1390
91.29	1363
91.3	1359
91.31	1360
91.32	1351
91.33	1348
91.34	1336
91.35	1338
91.36	1356
91.37	1358
91.38	1357
91.39	1348
91.4	1344
91.41	1334
91.42	1317
91.43	1341
91.44	1363
91.45	1371
91.46	1382
91.47	1377
91.48	1419
91.49	1448
91.5	1444
91.51	1444
91.52	1400
91.53	1370
91.54	1368
91.55	1409
91.56	1447
91.57	1442
91.58	1429
91.59	1439
91.6	1438
91.61	1424
91.62	1461
91.63	1503
91.64	1517
91.65	1498
91.66	1493
91.67	1503
91.68	1527
91.69	1579
91.7	1602
91.71	1624
91.72	1666
91.73	1720
91.74	1771
91.75	1785
91.76	1796
91.77	1845
91.78	1867
91.79	1881
91.8	1876
91.81	1853
91.82	1844
91.83	1830
91.84	1836
91.85	1852
91.86	1826
91.87	1753
91.88	1695
91.89	1655
91.9	1646
91.91	1672
91.92	1687
91.93	1664
91.94	1639
91.95	1630
91.96	1618
91.97	1601
91.98	1593
91.99	1615
92.0	1645
92.01	1630
92.02	1628
92.03	1650
92.04	1653
92.05	1640
92.06	1656
92.07	1678
92.08	1699
92.09	1690
92.1	1647
92.11	1610
92.12	1603
92.13	1582
92.14	1557
92.15	1559
92.16	1545
92.17	1533
92.18	1534
92.19	1522
92.2	1484
92.21	1459
92.22	1429
92.23	1374
92.24	1364
92.25	1427
92.26	1478
92.27	1496
92.28	1475
92.29	1431
92.3	1415
92.31	1414
92.32	1425
92.33	1402
92.34	1372
92.35	1358
92.36	1325
92.37	1347
92.38	1361
92.39	1345
92.4	1341
92.41	1338
92.42	1369
92.43	1374
92.44	1351
92.45	1336
92.46	1316
92.47	1310
92.48	1299
92.49	1310
92.5	1316
92.51	1326
92.52	1349
92.53	1333
92.54	1324
92.55	1335
92.56	1333
92.57	1358
92.58	1398
92.59	1380
92.6	1338
92.61	1310
92.62	1317
92.63	1339
92.64	1350
92.65	1370
92.66	1353
92.67	1329
92.68	1324
92.69	1320
92.7	1338
92.71	1366
92.72	1371
92.73	1331
92.74	1310
92.75	1316
92.76	1328
92.77	1337
92.78	1334
92.79	1347
92.8	1338
92.81	1313
92.82	1296
92.83	1328
92.84	1362
92.85	1330
92.86	1277
92.87	1303
92.88	1349
92.89	1348
92.9	1335
92.91	1356
92.92	1356
92.93	1326
92.94	1331
92.95	1319
92.96	1304
92.97	1336
92.98	1349
92.99	1328
93.0	1362
93.01	1371
93.02	1358
93.03	1359
93.04	1338
93.05	1295
93.06	1270
93.07	1298
93.08	1307
93.09	1291
93.1	1296
93.11	1311
93.12	1339
93.13	1344
93.14	1340
93.15	1342
93.16	1335
93.17	1340
93.18	1350
93.19	1330
93.2	1326
93.21	1337
93.22	1346
93.23	1334
93.24	1339
93.25	1346
93.26	1344
93.27	1318
93.28	1300
93.29	1285
93.3	1309
93.31	1310
93.32	1311
93.33	1334
93.34	1321
93.35	1299
93.36	1342
93.37	1359
93.38	1314
93.39	1300
93.4	1327
93.41	1356
93.42	1365
93.43	1357
93.44	1322
93.45	1297
93.46	1325
93.47	1327
93.48	1295
93.49	1296
93.5	1286
93.51	1292
93.52	1317
93.53	1342
93.54	1338
93.55	1316
93.56	1347
93.57	1361
93.58	1341
93.59	1342
93.6	1327
93.61	1296
93.62	1322
93.63	1320
93.64	1322
93.65	1331
93.66	1313
93.67	1298
93.68	1296
93.69	1313
93.7	1302
93.71	1299
93.72	1301
93.73	1289
93.74	1288
93.75	1305
93.76	1314
93.77	1306
93.78	1317
93.79	1333
93.8	1336
93.81	1333
93.82	1339
93.83	1328
93.84	1350
93.85	1358
93.86	1320
93.87	1314
93.88	1324
93.89	1308
93.9	1293
93.91	1299
93.92	1308
93.93	1312
93.94	1303
93.95	1317
93.96	1331
93.97	1348
93.98	1358
93.99	1336
94.0	1326
94.01	1333
94.02	1372
94.03	1359
94.04	1334
94.05	1346
94.06	1325
94.07	1301
94.08	1331
94.09	1343
94.1	1344
94.11	1325
94.12	1301
94.13	1292
94.14	1294
94.15	1278
94.16	1307
94.17	1329
94.18	1298
94.19	1282
94.2	1310
94.21	1337
94.22	1292
94.23	1297
94.24	1306
94.25	1305
94.26	1295
94.27	1305
94.28	1321
94.29	1331
94.3	1346
94.31	1360
94.32	1370
94.33	1341
94.34	1350
94.35	1381
94.36	1376
94.37	1341
94.38	1324
94.39	1330
94.4	1341
94.41	1335
94.42	1326
94.43	1327
94.44	1347
94.45	1312
94.46	1309
94.47	1290
94.48	1273
94.49	1318
94.5	1358
94.51	1307
94.52	1314
94.53	1350
94.54	1379
94.55	1328
94.56	1280
94.57	1309
94.58	1317
94.59	1326
94.6	1346
94.61	1317
94.62	1304
94.63	1318
94.64	1348
94.65	1348
94.66	1302
94.67	1267
94.68	1279
94.69	1294
94.7	1300
94.71	1316
94.72	1314
94.73	1295
94.74	1300
94.75	1323
94.76	1331
94.77	1322
94.78	1322
94.79	1316
94.8	1287
94.81	1294
94.82	1331
94.83	1349
94.84	1326
94.85	1326
94.86	1338
94.87	1335
94.88	1323
94.89	1313
94.9	1322
94.91	1310
94.92	1298
94.93	1323
94.94	1314
94.95	1308
94.96	1292
94.97	1327
94.98	1321
94.99	1311
95.0	1309
95.01	1322
95.02	1328
95.03	1328
95.04	1311
95.05	1307
95.06	1309
95.07	1312
95.08	1316
95.09	1320
95.1	1335
95.11	1313
95.12	1326
95.13	1319
95.14	1331
95.15	1295
95.16	1324
95.17	1308
95.18	1301
95.19	1300
95.2	1342
95.21	1340
95.22	1317
95.23	1341
95.24	1322
95.25	1320
95.26	1329
95.27	1303
95.28	1302
95.29	1342
95.3	1289
95.31	1275
95.32	1283
95.33	1293
95.34	1300
95.35	1312
95.36	1363
95.37	1330
95.38	1303
95.39	1277
95.4	1288
95.41	1336
95.42	1350
95.43	1351
95.44	1315
95.45	1311
95.46	1374
95.47	1363
95.48	1313
95.49	1326
95.5	1311
95.51	1307
95.52	1295
95.53	1285
95.54	1270
95.55	1295
95.56	1335
95.57	1306
95.58	1288
95.59	1288
95.6	1323
95.61	1331
95.62	1295
95.63	1287
95.64	1295
95.65	1294
95.66	1328
95.67	1344
95.68	1323
95.69	1294
95.7	1310
95.71	1303
95.72	1294
95.73	1347
95.74	1326
95.75	1343
95.76	1339
95.77	1333
95.78	1350
95.79	1338
95.8	1352
95.81	1363
95.82	1394
95.83	1351
95.84	1318
95.85	1287
95.86	1318
95.87	1349
95.88	1302
95.89	1282
95.9	1301
95.91	1309
95.92	1286
95.93	1270
95.94	1295
95.95	1318
95.96	1358
95.97	1366
95.98	1341
95.99	1312
96.0	1299
96.01	1310
96.02	1332
96.03	1312
96.04	1322
96.05	1346
96.06	1331
96.07	1305
96.08	1309
96.09	1316
96.1	1349
96.11	1333
96.12	1366
96.13	1376
96.14	1348
96.15	1370
96.16	1352
96.17	1338
96.18	1363
96.19	1345
96.2	1342
96.21	1344
96.22	1340
96.23	1331
96.24	1348
96.25	1343
96.26	1337
96.27	1324
96.28	1336
96.29	1365
96.3	1343
96.31	1370
96.32	1365
96.33	1354
96.34	1349
96.35	1351
96.36	1339
96.37	1324
96.38	1337
96.39	1359
96.4	1379
96.41	1373
96.42	1318
96.43	1357
96.44	1368
96.45	1346
96.46	1358
96.47	1371
96.48	1374
96.49	1410
96.5	1379
96.51	1347
96.52	1379
96.53	1396
96.54	1394
96.55	1374
96.56	1363
96.57	1372
96.58	1416
96.59	1425
96.6	1401
96.61	1416
96.62	1420
96.63	1427
96.64	1433
96.65	1455
96.66	1416
96.67	1436
96.68	1468
96.69	1489
96.7	1507
96.71	1487
96.72	1498
96.73	1520
96.74	1512
96.75	1522
96.76	1533
96.77	1521
96.78	1506
96.79	1537
96.8	1539
96.81	1525
96.82	1513
96.83	1494
96.84	1488
96.85	1530
96.86	1525
96.87	1521
96.88	1504
96.89	1496
96.9	1489
96.91	1480
96.92	1472
96.93	1481
96.94	1484
96.95	1497
96.96	1496
96.97	1474
96.98	1486
96.99	1515
97.0	1480
97.01	1494
97.02	1508
97.03	1443
97.04	1471
97.05	1481
97.06	1494
97.07	1481
97.08	1466
97.09	1488
97.1	1503
97.11	1485
97.12	1492
97.13	1485
97.14	1481
97.15	1453
97.16	1423
97.17	1424
97.18	1412
97.19	1428
97.2	1444
97.21	1434
97.22	1446
97.23	1457
97.24	1435
97.25	1413
97.26	1423
97.27	1378
97.28	1390
97.29	1423
97.3	1413
97.31	1412
97.32	1431
97.33	1470
97.34	1443
97.35	1385
97.36	1374
97.37	1360
97.38	1379
97.39	1408
97.4	1399
97.41	1400
97.42	1379
97.43	1388
97.44	1368
97.45	1364
97.46	1322
97.47	1309
97.48	1355
97.49	1359
97.5	1369
97.51	1362
97.52	1336
97.53	1354
97.54	1396
97.55	1388
97.56	1364
97.57	1391
97.58	1353
97.59	1362
97.6	1353
97.61	1360
97.62	1368
97.63	1380
97.64	1359
97.65	1319
97.66	1325
97.67	1330
97.68	1319
97.69	1325
97.7	1377
97.71	1382
97.72	1360
97.73	1372
97.74	1338
97.75	1353
97.76	1333
97.77	1320
97.78	1316
97.79	1318
97.8	1302
97.81	1312
97.82	1327
97.83	1358
97.84	1370
97.85	1339
97.86	1326
97.87	1333
97.88	1289
97.89	1301
97.9	1315
97.91	1341
97.92	1344
97.93	1334
97.94	1315
97.95	1312
97.96	1332
97.97	1371
97.98	1357
97.99	1306
98.0	1275
98.01	1299
98.02	1370
98.03	1353
98.04	1319
98.05	1299
98.06	1322
98.07	1335
98.08	1309
98.09	1319
98.1	1354
98.11	1324
98.12	1318
98.13	1331
98.14	1326
98.15	1331
98.16	1336
98.17	1336
98.18	1369
98.19	1368
98.2	1323
98.21	1310
98.22	1327
98.23	1296
98.24	1309
98.25	1334
98.26	1347
98.27	1344
98.28	1341
98.29	1355
98.3	1296
98.31	1271
98.32	1352
98.33	1313
98.34	1338
98.35	1350
98.36	1363
98.37	1405
98.38	1373
98.39	1318
98.4	1343
98.41	1359
98.42	1354
98.43	1362
98.44	1332
98.45	1369
98.46	1320
98.47	1316
98.48	1324
98.49	1317
98.5	1316
98.51	1324
98.52	1305
98.53	1327
98.54	1380
98.55	1349
98.56	1325
98.57	1313
98.58	1343
98.59	1333
98.6	1321
98.61	1317
98.62	1341
98.63	1352
98.64	1329
98.65	1333
98.66	1320
98.67	1340
98.68	1378
98.69	1367
98.7	1306
98.71	1335
98.72	1352
98.73	1329
98.74	1290
98.75	1255
98.76	1303
98.77	1288
98.78	1319
98.79	1305
98.8	1344
98.81	1317
98.82	1319
98.83	1322
98.84	1338
98.85	1363
98.86	1313
98.87	1313
98.88	1363
98.89	1327
98.9	1333
98.91	1322
98.92	1330
98.93	1341
98.94	1329
98.95	1312
98.96	1327
98.97	1346
98.98	1294
98.99	1317
99.0	1328
99.01	1324
99.02	1310
99.03	1329
99.04	1319
99.05	1274
99.06	1311
99.07	1333
99.08	1354
99.09	1324
99.1	1309
99.11	1327
99.12	1302
99.13	1293
99.14	1355
99.15	1367
99.16	1326
99.17	1305
99.18	1283
99.19	1303
99.2	1337
99.21	1336
99.22	1349
99.23	1338
99.24	1356
99.25	1349
99.26	1345
99.27	1328
99.28	1318
99.29	1319
99.3	1309
99.31	1328
99.32	1332
99.33	1313
99.34	1319
99.35	1327
99.36	1349
99.37	1352
99.38	1341
99.39	1297
99.4	1364
99.41	1364
99.42	1313
99.43	1324
99.44	1320
99.45	1317
99.46	1293
99.47	1350
99.48	1336
99.49	1346
99.5	1361
99.51	1298
99.52	1253
99.53	1303
99.54	1341
99.55	1398
99.56	1336
99.57	1366
99.58	1348
99.59	1363
99.6	1336
99.61	1301
99.62	1302
99.63	1331
99.64	1367
99.65	1352
99.66	1357
99.67	1354
99.68	1315
99.69	1335
99.7	1370
99.71	1384
99.72	1368
99.73	1375
99.74	1374
99.75	1330
99.76	1350
99.77	1369
99.78	1368
99.79	1388
99.8	1379
99.81	1345
99.82	1377
99.83	1359
99.84	1341
99.85	1393
99.86	1363
99.87	1378
99.88	1392
99.89	1362
99.9	1339
99.91	1304
99.92	1335
99.93	1367
99.94	1365
99.95	1400
99.96	1356
99.97	1368
99.98	1403
99.99	1431
100.0	1402
