Single_MnF2_long_sca
Wavelength = 1.54059 Ã… (Cu)
10.0	4979
10.01	4944
10.02	5004
10.03	4942
10.04	4885
10.05	4972
10.06	4994
10.07	4980
10.08	5017
10.09	5022
10.1	4918
10.11	5014
10.12	5003
10.13	5025
10.14	5131
10.15	5083
10.16	5051
10.17	4965
10.18	4994
10.19	5133
10.2	5139
10.21	5038
10.22	5015
10.23	5088
10.24	5047
10.25	5042
10.26	5006
10.27	5169
10.28	5285
10.29	5277
10.3	5169
10.31	5083
10.32	5154
10.33	5055
10.34	5199
10.35	5122
10.36	5089
10.37	5115
10.38	5187
10.39	5231
10.4	5051
10.41	5083
10.42	5167
10.43	5193
10.44	5201
10.45	5156
10.46	5197
10.47	5242
10.48	5219
10.49	5169
10.5	5181
10.51	5218
10.52	5285
10.53	5281
10.54	5231
10.55	5288
10.56	5364
10.57	5365
10.58	5376
10.59	5304
10.6	5403
10.61	5400
10.62	5325
10.63	5339
10.64	5353
10.65	5320
10.66	5384
10.67	5381
10.68	5391
10.69	5476
10.7	5457
10.71	5452
10.72	5451
10.73	5460
10.74	5477
10.75	5514
10.76	5401
10.77	5537
10.78	5569
10.79	5467
10.8	5452
10.81	5480
10.82	5506
10.83	5544
10.84	5539
10.85	5502
10.86	5544
10.87	5597
10.88	5547
10.89	5600
10.9	5595
10.91	5590
10.92	5545
10.93	5518
10.94	5505
10.95	5652
10.96	5642
10.97	5654
10.98	5670
10.99	5651
11.0	5634
11.01	5677
11.02	5698
11.03	5705
11.04	5758
11.05	5718
11.06	5659
11.07	5752
11.08	5777
11.09	5754
11.1	5734
11.11	5559
11.12	5732
11.13	5777
11.14	5741
11.15	5742
11.16	5885
11.17	5805
11.18	5783
11.19	5833
11.2	5748
11.21	5719
11.22	5782
11.23	5846
11.24	5872
11.25	5852
11.26	5807
11.27	5897
11.28	6012
11.29	5930
11.3	5825
11.31	5886
11.32	5924
11.33	5843
11.34	5832
11.35	5901
11.36	5959
11.37	5933
11.38	5938
11.39	5953
11.4	5978
11.41	6017
11.42	5953
11.43	6092
11.44	6086
11.45	6151
11.46	6055
11.47	6036
11.48	6120
11.49	6053
11.5	6007
11.51	6071
11.52	6110
11.53	6163
11.54	6093
11.55	6069
11.56	6117
11.57	6126
11.58	6129
11.59	6181
11.6	6145
11.61	6120
11.62	6195
11.63	6219
11.64	6163
11.65	6097
11.66	6111
11.67	6224
11.68	6187
11.69	6169
11.7	6248
11.71	6295
11.72	6242
11.73	6169
11.74	6182
11.75	6286
11.76	6333
11.77	6371
11.78	6258
11.79	6288
11.8	6343
11.81	6268
11.82	6227
11.83	6287
11.84	6333
11.85	6365
11.86	6316
11.87	6311
11.88	6378
11.89	6384
11.9	6416
11.91	6388
11.92	6280
11.93	6317
11.94	6426
11.95	6424
11.96	6500
11.97	6452
11.98	6413
11.99	6485
12.0	6498
12.01	6539
12.02	6478
12.03	6464
12.04	6523
12.05	6529
12.06	6492
12.07	6479
12.08	6636
12.09	6642
12.1	6612
12.11	6577
12.12	6628
12.13	6596
12.14	6589
12.15	6601
12.16	6676
12.17	6684
12.18	6692
12.19	6662
12.2	6602
12.21	6738
12.22	6698
12.23	6702
12.24	6678
12.25	6696
12.26	6712
12.27	6748
12.28	6819
12.29	6676
12.3	6610
12.31	6657
12.32	6801
12.33	6861
12.34	6842
12.35	6839
12.36	6926
12.37	6884
12.38	6902
12.39	6907
12.4	7013
12.41	6917
12.42	6984
12.43	7043
12.44	6960
12.45	6993
12.46	6953
12.47	6949
12.48	7014
12.49	7035
12.5	6906
12.51	6992
12.52	7095
12.53	7111
12.54	7102
12.55	7022
12.56	7078
12.57	7207
12.58	7234
12.59	7157
12.6	7127
12.61	7192
12.62	7127
12.63	7244
12.64	7299
12.65	7292
12.66	7303
12.67	7361
12.68	7327
12.69	7325
12.7	7456
12.71	7478
12.72	7541
12.73	7602
12.74	7482
12.75	7470
12.76	7583
12.77	7523
12.78	7598
12.79	7595
12.8	7547
12.81	7590
12.82	7658
12.83	7643
12.84	7623
12.85	7617
12.86	7677
12.87	7775
12.88	7708
12.89	7794
12.9	8096
12.91	7930
12.92	7913
12.93	7940
12.94	7992
12.95	8045
12.96	8095
12.97	8113
12.98	8191
12.99	8134
13.0	8025
13.01	8097
13.02	8128
13.03	8252
13.04	8262
13.05	8268
13.06	8292
13.07	8200
13.08	8293
13.09	8404
13.1	8412
13.11	8414
13.12	8475
13.13	8556
13.14	8712
13.15	8734
13.16	8648
13.17	8737
13.18	8774
13.19	8713
13.2	8812
13.21	8798
13.22	8787
13.23	8835
13.24	8983
13.25	9013
13.26	8979
13.27	8950
13.28	8965
13.29	9131
13.3	9193
13.31	9259
13.32	9385
13.33	9278
13.34	9375
13.35	9455
13.36	9473
13.37	9390
13.38	9383
13.39	9535
13.4	9690
13.41	9664
13.42	9665
13.43	9784
13.44	9815
13.45	9804
13.46	9838
13.47	9879
13.48	9962
13.49	9990
13.5	10020
13.51	10098
13.52	10200
13.53	10269
13.54	10222
13.55	10363
13.56	10353
13.57	10316
13.58	10366
13.59	10327
13.6	10344
13.61	10439
13.62	10632
13.63	10699
13.64	10762
13.65	10788
13.66	10890
13.67	10904
13.68	10960
13.69	11083
13.7	10962
13.71	10968
13.72	11031
13.73	11065
13.74	11064
13.75	11204
13.76	11292
13.77	11262
13.78	11304
13.79	11380
13.8	11440
13.81	11536
13.82	11655
13.83	11723
13.84	11637
13.85	11544
13.86	11571
13.87	11742
13.88	11891
13.89	11894
13.9	11935
13.91	11892
13.92	12005
13.93	12106
13.94	12265
13.95	12138
13.96	12057
13.97	12246
13.98	12261
13.99	12250
14.0	12351
14.01	12378
14.02	12396
14.03	12419
14.04	12380
14.05	12488
14.06	12502
14.07	12515
14.08	12566
14.09	12603
14.1	12548
14.11	12735
14.12	12854
14.13	12862
14.14	12943
14.15	12884
14.16	13011
14.17	13149
14.18	13166
14.19	13136
14.2	13151
14.21	13071
14.22	13138
14.23	13174
14.24	13260
14.25	13284
14.26	13320
14.27	13286
14.28	13210
14.29	13267
14.3	13366
14.31	13514
14.32	13461
14.33	13471
14.34	13459
14.35	13413
14.36	13404
14.37	13318
14.38	13453
14.39	13579
14.4	13518
14.41	13482
14.42	13541
14.43	13607
14.44	13672
14.45	13673
14.46	13672
14.47	13721
14.48	13716
14.49	13574
14.5	13619
14.51	13691
14.52	13909
14.53	13887
14.54	13864
14.55	13911
14.56	13769
14.57	13791
14.58	13832
14.59	13902
14.6	13922
14.61	14014
14.62	13917
14.63	13854
14.64	13937
14.65	13867
14.66	13792
14.67	13712
14.68	13720
14.69	13808
14.7	13805
14.71	13990
14.72	13998
14.73	14019
14.74	14109
14.75	14061
14.76	13920
14.77	13839
14.78	13842
14.79	13858
14.8	13791
14.81	13799
14.82	13794
14.83	13902
14.84	13906
14.85	13831
14.86	13806
14.87	13740
14.88	13809
14.89	13922
14.9	13882
14.91	13789
14.92	13821
14.93	13875
14.94	13937
14.95	13915
14.96	13930
14.97	13872
14.98	13856
14.99	13871
15.0	13870
15.01	13758
15.02	13599
15.03	13724
15.04	13765
15.05	13740
15.06	13753
15.07	13739
15.08	13795
15.09	13763
15.1	13795
15.11	13680
15.12	13438
15.13	13516
15.14	13625
15.15	13613
15.16	13582
15.17	13727
15.18	13685
15.19	13516
15.2	13518
15.21	13535
15.22	13422
15.23	13521
15.24	13575
15.25	13594
15.26	13608
15.27	13614
15.28	13523
15.29	13451
15.3	13452
15.31	13467
15.32	13422
15.33	13433
15.34	13450
15.35	13509
15.36	13585
15.37	13588
15.38	13505
15.39	13431
15.4	13352
15.41	13350
15.42	13390
15.43	13356
15.44	13386
15.45	13430
15.46	13450
15.47	13427
15.48	13333
15.49	13303
15.5	13388
15.51	13397
15.52	13320
15.53	13228
15.54	13114
15.55	13084
15.56	13154
15.57	13272
15.58	13284
15.59	13179
15.6	13166
15.61	13125
15.62	13168
15.63	13320
15.64	13372
15.65	13290
15.66	13149
15.67	13132
15.68	13164
15.69	13144
15.7	13001
15.71	12890
15.72	12900
15.73	12969
15.74	12965
15.75	13024
15.76	13041
15.77	12990
15.78	12994
15.79	12926
15.8	12801
15.81	12829
15.82	12972
15.83	12929
15.84	12941
15.85	13010
15.86	12917
15.87	12869
15.88	12827
15.89	12916
15.9	12891
15.91	12869
15.92	12947
15.93	12954
15.94	12933
15.95	12889
15.96	12714
15.97	12694
15.98	12740
15.99	12767
16.0	12728
16.01	12707
16.02	12700
16.03	12686
16.04	12765
16.05	12778
16.06	12775
16.07	12768
16.08	12723
16.09	12728
16.1	12656
16.11	12643
16.12	12789
16.13	12809
16.14	12730
16.15	12742
16.16	12736
16.17	12651
16.18	12603
16.19	12701
16.2	12812
16.21	12799
16.22	12685
16.23	12614
16.24	12660
16.25	12653
16.26	12681
16.27	12665
16.28	12690
16.29	12686
16.3	12583
16.31	12566
16.32	12640
16.33	12634
16.34	12643
16.35	12642
16.36	12615
16.37	12584
16.38	12612
16.39	12756
16.4	12667
16.41	12503
16.42	12490
16.43	12547
16.44	12565
16.45	12614
16.46	12696
16.47	12705
16.48	12639
16.49	12590
16.5	12617
16.51	12704
16.52	12625
16.53	12539
16.54	12640
16.55	12706
16.56	12618
16.57	12597
16.58	12627
16.59	12647
16.6	12674
16.61	12589
16.62	12573
16.63	12614
16.64	12584
16.65	12680
16.66	12708
16.67	12673
16.68	12684
16.69	12710
16.7	12703
16.71	12695
16.72	12706
16.73	12657
16.74	12607
16.75	12703
16.76	12741
16.77	12666
16.78	12680
16.79	12685
16.8	12685
16.81	12705
16.82	12680
16.83	12760
16.84	12807
16.85	12726
16.86	12706
16.87	12721
16.88	12725
16.89	12664
16.9	12696
16.91	12741
16.92	12722
16.93	12741
16.94	12685
16.95	12681
16.96	12780
16.97	12799
16.98	12756
16.99	12725
17.0	12697
17.01	12664
17.02	12633
17.03	12794
17.04	12912
17.05	12797
17.06	12736
17.07	12733
17.08	12757
17.09	12688
17.1	12720
17.11	12771
17.12	12734
17.13	12724
17.14	12747
17.15	12762
17.16	12740
17.17	12765
17.18	12755
17.19	12698
17.2	12699
17.21	12695
17.22	12712
17.23	12788
17.24	12881
17.25	12873
17.26	12762
17.27	12749
17.28	12761
17.29	12789
17.3	12809
17.31	12761
17.32	12790
17.33	12820
17.34	12798
17.35	12799
17.36	12872
17.37	12899
17.38	12854
17.39	12902
17.4	12892
17.41	12759
17.42	12795
17.43	12989
17.44	12987
17.45	12829
17.46	12763
17.47	12773
17.48	12792
17.49	12814
17.5	12860
17.51	12962
17.52	12928
17.53	12831
17.54	12860
17.55	12859
17.56	12880
17.57	12912
17.58	12896
17.59	12912
17.6	12912
17.61	12912
17.62	12925
17.63	12958
17.64	12959
17.65	12920
17.66	12918
17.67	12925
17.68	12847
17.69	12867
17.7	13039
17.71	13035
17.72	13013
17.73	13019
17.74	12964
17.75	12943
17.76	12981
17.77	12978
17.78	12957
17.79	13026
17.8	13026
17.81	13004
17.82	13030
17.83	13050
17.84	12956
17.85	12885
17.86	12982
17.87	13118
17.88	13110
17.89	12976
17.9	12949
17.91	12936
17.92	12895
17.93	13012
17.94	13140
17.95	13153
17.96	13151
17.97	13038
17.98	13016
17.99	13088
18.0	13084
18.01	13033
18.02	12979
18.03	13070
18.04	13213
18.05	13262
18.06	13170
18.07	13104
18.08	13113
18.09	13089
18.1	13133
18.11	13176
18.12	13127
18.13	13103
18.14	13096
18.15	13129
18.16	13109
18.17	13096
18.18	13155
18.19	13223
18.2	13185
18.21	13157
18.22	13225
18.23	13235
18.24	13170
18.25	13170
18.26	13118
18.27	13012
18.28	13038
18.29	13137
18.3	13284
18.31	13331
18.32	13226
18.33	13194
18.34	13196
18.35	13147
18.36	13173
18.37	13235
18.38	13170
18.39	13158
18.4	13134
18.41	13170
18.42	13213
18.43	13248
18.44	13295
18.45	13316
18.46	13291
18.47	13149
18.48	13049
18.49	13102
18.5	13212
18.51	13227
18.52	13115
18.53	13027
18.54	13094
18.55	13235
18.56	13273
18.57	13184
18.58	13212
18.59	13315
18.6	13302
18.61	13274
18.62	13326
18.63	13349
18.64	13341
18.65	13301
18.66	13379
18.67	13383
18.68	13173
18.69	13102
18.7	13140
18.71	13142
18.72	13171
18.73	13213
18.74	13237
18.75	13221
18.76	13176
18.77	13175
18.78	13236
18.79	13175
18.8	13175
18.81	13298
18.82	13319
18.83	13282
18.84	13278
18.85	13260
18.86	13205
18.87	13231
18.88	13250
18.89	13282
18.9	13308
18.91	13219
18.92	13173
18.93	13112
18.94	13085
18.95	13159
18.96	13222
18.97	13302
18.98	13262
18.99	13177
19.0	13216
19.01	13265
19.02	13300
19.03	13268
19.04	13156
19.05	13277
19.06	13274
19.07	13217
19.08	13174
19.09	13215
19.1	13265
19.11	13253
19.12	13200
19.13	13192
19.14	13242
19.15	13216
19.16	13056
19.17	12977
19.18	13048
19.19	13092
19.2	13133
19.21	13189
19.22	13238
19.23	13250
19.24	13317
19.25	13352
19.26	13318
19.27	13215
19.28	13202
19.29	13223
19.3	13285
19.31	13206
19.32	13136
19.33	13160
19.34	13170
19.35	13203
19.36	13182
19.37	13159
19.38	13168
19.39	13149
19.4	13185
19.41	13221
19.42	13290
19.43	13357
19.44	13206
19.45	13242
19.46	13244
19.47	13233
19.48	13339
19.49	13316
19.5	13173
19.51	13116
19.52	13206
19.53	13149
19.54	13053
19.55	13065
19.56	13121
19.57	13171
19.58	13168
19.59	13174
19.6	13161
19.61	13134
19.62	13081
19.63	13075
19.64	13089
19.65	13100
19.66	13068
19.67	13152
19.68	13114
19.69	13094
19.7	13100
19.71	13178
19.72	13232
19.73	13118
19.74	13064
19.75	13120
19.76	13079
19.77	13086
19.78	13102
19.79	13176
19.8	13219
19.81	13179
19.82	13066
19.83	13017
19.84	13159
19.85	13036
19.86	13064
19.87	13095
19.88	13113
19.89	13122
19.9	13061
19.91	13055
19.92	13161
19.93	13265
19.94	13181
19.95	13152
19.96	13265
19.97	13219
19.98	13094
19.99	13054
20.0	13224
20.01	13238
20.02	13147
20.03	13059
20.04	13015
20.05	13015
20.06	13092
20.07	13024
20.08	13033
20.09	13109
20.1	13177
20.11	13084
20.12	13121
20.13	13168
20.14	13178
20.15	13079
20.16	13022
20.17	13039
20.18	13089
20.19	13028
20.2	13022
20.21	13090
20.22	13046
20.23	12999
20.24	12963
20.25	13071
20.26	13056
20.27	13092
20.28	13165
20.29	12978
20.3	13036
20.31	13112
20.32	12983
20.33	13015
20.34	13182
20.35	13290
20.36	13223
20.37	13225
20.38	13143
20.39	13186
20.4	13307
20.41	13241
20.42	13093
20.43	13134
20.44	13280
20.45	13204
20.46	13170
20.47	13225
20.48	13179
20.49	13038
20.5	13188
20.51	13253
20.52	13177
20.53	13235
20.54	13148
20.55	13129
20.56	13189
20.57	13187
20.58	13363
20.59	13342
20.6	13335
20.61	13303
20.62	13251
20.63	13335
20.64	13351
20.65	13279
20.66	13348
20.67	13452
20.68	13385
20.69	13234
20.7	13291
20.71	13247
20.72	13244
20.73	13287
20.74	13448
20.75	13459
20.76	13425
20.77	13368
20.78	13469
20.79	13569
20.8	13493
20.81	13468
20.82	13475
20.83	13376
20.84	13350
20.85	13539
20.86	13588
20.87	13506
20.88	13512
20.89	13516
20.9	13690
20.91	13676
20.92	13721
20.93	13568
20.94	13594
20.95	13556
20.96	13634
20.97	13695
20.98	13681
20.99	13628
21.0	13613
21.01	13613
21.02	13658
21.03	13716
21.04	13794
21.05	13819
21.06	13852
21.07	13841
21.08	13891
21.09	13865
21.1	13985
21.11	14028
21.12	13998
21.13	13976
21.14	14015
21.15	14001
21.16	13770
21.17	13795
21.18	13770
21.19	13926
21.2	13959
21.21	14027
21.22	13905
21.23	13916
21.24	14112
21.25	14121
21.26	14138
21.27	14197
21.28	14226
21.29	14153
21.3	14067
21.31	13971
21.32	14076
21.33	14005
21.34	13993
21.35	14163
21.36	14193
21.37	14048
21.38	14078
21.39	14031
21.4	14113
21.41	14242
21.42	14270
21.43	14142
21.44	14219
21.45	14346
21.46	14435
21.47	14375
21.48	14259
21.49	14415
21.5	14501
21.51	14360
21.52	14258
21.53	14567
21.54	14459
21.55	14468
21.56	14459
21.57	14404
21.58	14352
21.59	14296
21.6	14268
21.61	14236
21.62	14497
21.63	14546
21.64	14525
21.65	14479
21.66	14441
21.67	14431
21.68	14388
21.69	14360
21.7	14408
21.71	14522
21.72	14503
21.73	14319
21.74	14310
21.75	14251
21.76	14390
21.77	14597
21.78	14562
21.79	14470
21.8	14380
21.81	14471
21.82	14365
21.83	14351
21.84	14503
21.85	14566
21.86	14605
21.87	14469
21.88	14511
21.89	14519
21.9	14430
21.91	14429
21.92	14343
21.93	14355
21.94	14345
21.95	14516
21.96	14323
21.97	14428
21.98	14435
21.99	14399
22.0	14317
22.01	14132
22.02	14341
22.03	14430
22.04	14234
22.05	14368
22.06	14487
22.07	14401
22.08	14221
22.09	14164
22.1	14116
22.11	14197
22.12	14112
22.13	14181
22.14	14102
22.15	13952
22.16	14168
22.17	14139
22.18	14010
22.19	14062
22.2	14101
22.21	13981
22.22	13951
22.23	13956
22.24	14013
22.25	14037
22.26	13818
22.27	13923
22.28	13915
22.29	13882
22.3	13916
22.31	13929
22.32	13832
22.33	13813
22.34	13741
22.35	13637
22.36	13611
22.37	13636
22.38	13699
22.39	13751
22.4	13846
22.41	13641
22.42	13576
22.43	13533
22.44	13483
22.45	13454
22.46	13514
22.47	13525
22.48	13503
22.49	13534
22.5	13483
22.51	13365
22.52	13303
22.53	13286
22.54	13336
22.55	13187
22.56	13199
22.57	13233
22.58	13178
22.59	13169
22.6	13199
22.61	13066
22.62	13079
22.63	13003
22.64	13008
22.65	13007
22.66	12966
22.67	12879
22.68	12875
22.69	12811
22.7	12869
22.71	12744
22.72	12613
22.73	12692
22.74	12656
22.75	12634
22.76	12691
22.77	12509
22.78	12480
22.79	12508
22.8	12461
22.81	12496
22.82	12270
22.83	12365
22.84	12246
22.85	12247
22.86	12384
22.87	12266
22.88	12023
22.89	12122
22.9	12180
22.91	12100
22.92	12082
22.93	12076
22.94	12070
22.95	12023
22.96	11858
22.97	11885
22.98	11920
22.99	11866
23.0	11902
23.01	11741
23.02	11684
23.03	11871
23.04	11709
23.05	11728
23.06	11694
23.07	11669
23.08	11727
23.09	11572
23.1	11515
23.11	11492
23.12	11479
23.13	11370
23.14	11403
23.15	11334
23.16	11402
23.17	11326
23.18	11282
23.19	11390
23.2	11250
23.21	11274
23.22	11233
23.23	11256
23.24	11231
23.25	11126
23.26	11149
23.27	11147
23.28	11148
23.29	11019
23.3	10925
23.31	10872
23.32	10928
23.33	10840
23.34	10855
23.35	10873
23.36	10765
23.37	10799
23.38	10889
23.39	10829
23.4	10739
23.41	10766
23.42	10705
23.43	10661
23.44	10650
23.45	10665
23.46	10554
23.47	10518
23.48	10509
23.49	10436
23.5	10662
23.51	10567
23.52	10464
23.53	10424
23.54	10422
23.55	10325
23.56	10317
23.57	10373
23.58	10323
23.59	10207
23.6	10209
23.61	10233
23.62	10282
23.63	10262
23.64	10246
23.65	10192
23.66	10212
23.67	10204
23.68	10099
23.69	10046
23.7	9888
23.71	10014
23.72	10077
23.73	10059
23.74	10044
23.75	9987
23.76	9973
23.77	9995
23.78	10032
23.79	9992
23.8	9867
23.81	9765
23.82	9808
23.83	9822
23.84	9765
23.85	9715
23.86	9758
23.87	9745
23.88	9750
23.89	9803
23.9	9830
23.91	9774
23.92	9726
23.93	9712
23.94	9665
23.95	9624
23.96	9668
23.97	9725
23.98	9677
23.99	9684
24.0	9692
24.01	9617
24.02	9590
24.03	9478
24.04	9420
24.05	9443
24.06	9441
24.07	9462
24.08	9501
24.09	9573
24.1	9397
24.11	9354
24.12	9362
24.13	9421
24.14	9480
24.15	9395
24.16	9208
24.17	9266
24.18	9252
24.19	9186
24.2	9320
24.21	9441
24.22	9367
24.23	9289
24.24	9247
24.25	9255
24.26	9321
24.27	9429
24.28	9366
24.29	9260
24.3	9285
24.31	9357
24.32	9299
24.33	9317
24.34	9235
24.35	9274
24.36	9182
24.37	9204
24.38	9192
24.39	9189
24.4	9234
24.41	9151
24.42	9109
24.43	9147
24.44	9197
24.45	9213
24.46	9184
24.47	9149
24.48	9154
24.49	9180
24.5	9088
24.51	9021
24.52	9019
24.53	9069
24.54	9193
24.55	9181
24.56	9163
24.57	9220
24.58	9169
24.59	9100
24.6	9062
24.61	9051
24.62	9066
24.63	9070
24.64	9040
24.65	9041
24.66	9053
24.67	9052
24.68	9097
24.69	9099
24.7	9001
24.71	8976
24.72	9062
24.73	9015
24.74	9004
24.75	9021
24.76	9030
24.77	9046
24.78	9064
24.79	9050
24.8	9074
24.81	9068
24.82	9107
24.83	9076
24.84	9007
24.85	9060
24.86	9029
24.87	9004
24.88	9109
24.89	9123
24.9	9072
24.91	9100
24.92	9104
24.93	9094
24.94	9073
24.95	9130
24.96	9182
24.97	9201
24.98	9129
24.99	9155
25.0	9051
25.01	9088
25.02	9139
25.03	9121
25.04	9077
25.05	9052
25.06	9130
25.07	9172
25.08	9182
25.09	9172
25.1	9114
25.11	9096
25.12	9114
25.13	9200
25.14	9193
25.15	9103
25.16	9170
25.17	9125
25.18	9108
25.19	9165
25.2	9112
25.21	9057
25.22	9161
25.23	9217
25.24	9197
25.25	9244
25.26	9230
25.27	9195
25.28	9115
25.29	9145
25.3	9193
25.31	9170
25.32	9173
25.33	9239
25.34	9320
25.35	9314
25.36	9287
25.37	9266
25.38	9290
25.39	9271
25.4	9300
25.41	9319
25.42	9345
25.43	9439
25.44	9529
25.45	9412
25.46	9348
25.47	9400
25.48	9447
25.49	9506
25.5	9466
25.51	9425
25.52	9363
25.53	9398
25.54	9443
25.55	9458
25.56	9671
25.57	9650
25.58	9622
25.59	9741
25.6	9681
25.61	9593
25.62	9765
25.63	9795
25.64	9731
25.65	9768
25.66	9913
25.67	10003
25.68	10038
25.69	10104
25.7	10291
25.71	10410
25.72	10498
25.73	10536
25.74	10695
25.75	10824
25.76	11011
25.77	11186
25.78	11398
25.79	11595
25.8	11788
25.81	12115
25.82	12269
25.83	12453
25.84	12569
25.85	12748
25.86	12927
25.87	12900
25.88	12877
25.89	12979
25.9	12928
25.91	12665
25.92	12471
25.93	12254
25.94	12050
25.95	11838
25.96	11564
25.97	11272
25.98	10949
25.99	10767
26.0	10589
26.01	10397
26.02	10290
26.03	10094
26.04	10003
26.05	9862
26.06	9752
26.07	9706
26.08	9752
26.09	9765
26.1	9705
26.11	9685
26.12	9643
26.13	9556
26.14	9562
26.15	9595
26.16	9541
26.17	9460
26.18	9413
26.19	9402
26.2	9500
26.21	9544
26.22	9468
26.23	9367
26.24	9351
26.25	9351
26.26	9320
26.27	9367
26.28	9370
26.29	9304
26.3	9229
26.31	9210
26.32	9268
26.33	9260
26.34	9165
26.35	9156
26.36	9188
26.37	9167
26.38	9147
26.39	9163
26.4	9210
26.41	9203
26.42	9117
26.43	9054
26.44	9046
26.45	9012
26.46	9038
26.47	9042
26.48	9013
26.49	9073
26.5	9052
26.51	8979
26.52	8960
26.53	8950
26.54	8936
26.55	8933
26.56	8900
26.57	8858
26.58	8855
26.59	8874
26.6	8830
26.61	8836
26.62	8825
26.63	8717
26.64	8727
26.65	8708
26.66	8745
26.67	8789
26.68	8755
26.69	8685
26.7	8602
26.71	8602
26.72	8684
26.73	8733
26.74	8688
26.75	8616
26.76	8563
26.77	8527
26.78	8481
26.79	8493
26.8	8543
26.81	8496
26.82	8435
26.83	8440
26.84	8451
26.85	8378
26.86	8324
26.87	8226
26.88	8223
26.89	8310
26.9	8333
26.91	8273
26.92	8251
26.93	8275
26.94	8183
26.95	8086
26.96	8131
26.97	8111
26.98	8015
26.99	8038
27.0	8096
27.01	8104
27.02	8053
27.03	8034
27.04	7974
27.05	7909
27.06	7916
27.07	7894
27.08	7921
27.09	7888
27.1	7813
27.11	7833
27.12	7833
27.13	7768
27.14	7800
27.15	7897
27.16	7826
27.17	7687
27.18	7657
27.19	7637
27.2	7634
27.21	7633
27.22	7580
27.23	7601
27.24	7682
27.25	7701
27.26	7590
27.27	7513
27.28	7514
27.29	7470
27.3	7425
27.31	7369
27.32	7405
27.33	7464
27.34	7352
27.35	7266
27.36	7338
27.37	7403
27.38	7442
27.39	7480
27.4	7399
27.41	7359
27.42	7349
27.43	7270
27.44	7244
27.45	7255
27.46	7285
27.47	7201
27.48	7017
27.49	7042
27.5	7134
27.51	7131
27.52	7100
27.53	7034
27.54	7047
27.55	7078
27.56	7028
27.57	6962
27.58	6951
27.59	7027
27.6	7062
27.61	7026
27.62	6939
27.63	6888
27.64	6869
27.65	6833
27.66	6888
27.67	6900
27.68	6822
27.69	6743
27.7	6698
27.71	6772
27.72	6756
27.73	6758
27.74	6760
27.75	6705
27.76	6643
27.77	6576
27.78	6587
27.79	6652
27.8	6688
27.81	6648
27.82	6603
27.83	6591
27.84	6588
27.85	6590
27.86	6513
27.87	6484
27.88	6509
27.89	6515
27.9	6525
27.91	6506
27.92	6480
27.93	6421
27.94	6437
27.95	6435
27.96	6382
27.97	6361
27.98	6339
27.99	6279
28.0	6300
28.01	6373
28.02	6391
28.03	6341
28.04	6312
28.05	6294
28.06	6294
28.07	6298
28.08	6277
28.09	6239
28.1	6229
28.11	6196
28.12	6158
28.13	6256
28.14	6303
28.15	6257
28.16	6201
28.17	6207
28.18	6188
28.19	6060
28.2	6032
28.21	6094
28.22	6154
28.23	6179
28.24	6127
28.25	6026
28.26	6002
28.27	6042
28.28	6070
28.29	6017
28.3	5990
28.31	6031
28.32	6029
28.33	5958
28.34	5948
28.35	5912
28.36	5942
28.37	5939
28.38	5981
28.39	5989
28.4	5913
28.41	5841
28.42	5846
28.43	5831
28.44	5877
28.45	5820
28.46	5769
28.47	5812
28.48	5814
28.49	5789
28.5	5747
28.51	5759
28.52	5771
28.53	5779
28.54	5776
28.55	5751
28.56	5730
28.57	5777
28.58	5764
28.59	5755
28.6	5758
28.61	5711
28.62	5711
28.63	5759
28.64	5828
28.65	5794
28.66	5712
28.67	5706
28.68	5708
28.69	5695
28.7	5759
28.71	5713
28.72	5663
28.73	5593
28.74	5521
28.75	5502
28.76	5558
28.77	5574
28.78	5549
28.79	5514
28.8	5435
28.81	5470
28.82	5473
28.83	5456
28.84	5471
28.85	5488
28.86	5472
28.87	5416
28.88	5403
28.89	5467
28.9	5410
28.91	5364
28.92	5396
28.93	5371
28.94	5338
28.95	5246
28.96	5269
28.97	5381
28.98	5346
28.99	5313
29.0	5301
29.01	5361
29.02	5330
29.03	5339
29.04	5282
29.05	5243
29.06	5263
29.07	5234
29.08	5193
29.09	5204
29.1	5226
29.11	5227
29.12	5214
29.13	5176
29.14	5132
29.15	5168
29.16	5198
29.17	5054
29.18	5014
29.19	5108
29.2	5173
29.21	5132
29.22	5089
29.23	5057
29.24	5030
29.25	5045
29.26	5112
29.27	5146
29.28	5128
29.29	5085
29.3	5032
29.31	5101
29.32	5113
29.33	5069
29.34	5026
29.35	5046
29.36	5105
29.37	5039
29.38	4977
29.39	4939
29.4	4926
29.41	4951
29.42	4961
29.43	4952
29.44	4962
29.45	4907
29.46	4889
29.47	4906
29.48	4910
29.49	4876
29.5	4868
29.51	4880
29.52	4822
29.53	4734
29.54	4684
29.55	4762
29.56	4819
29.57	4777
29.58	4759
29.59	4706
29.6	4787
29.61	4799
29.62	4756
29.63	4773
29.64	4711
29.65	4716
29.66	4662
29.67	4690
29.68	4708
29.69	4636
29.7	4616
29.71	4657
29.72	4697
29.73	4687
29.74	4667
29.75	4603
29.76	4583
29.77	4592
29.78	4612
29.79	4569
29.8	4525
29.81	4588
29.82	4623
29.83	4610
29.84	4579
29.85	4513
29.86	4506
29.87	4501
29.88	4557
29.89	4574
29.9	4511
29.91	4474
29.92	4467
29.93	4495
29.94	4506
29.95	4494
29.96	4488
29.97	4441
29.98	4403
29.99	4441
30.0	4431
30.01	4435
30.02	4441
30.03	4414
30.04	4348
30.05	4387
30.06	4380
30.07	4378
30.08	4387
30.09	4436
30.1	4370
30.11	4331
30.12	4359
30.13	4389
30.14	4287
30.15	4216
30.16	4243
30.17	4339
30.18	4443
30.19	4373
30.2	4301
30.21	4318
30.22	4327
30.23	4272
30.24	4255
30.25	4336
30.26	4296
30.27	4310
30.28	4271
30.29	4218
30.3	4202
30.31	4197
30.32	4261
30.33	4242
30.34	4231
30.35	4234
30.36	4241
30.37	4233
30.38	4184
30.39	4145
30.4	4146
30.41	4242
30.42	4217
30.43	4191
30.44	4113
30.45	4074
30.46	4101
30.47	4159
30.48	4224
30.49	4213
30.5	4169
30.51	4185
30.52	4081
30.53	4108
30.54	4194
30.55	4165
30.56	4137
30.57	4101
30.58	4097
30.59	4162
30.6	4152
30.61	4112
30.62	4067
30.63	4077
30.64	4113
30.65	4130
30.66	4027
30.67	4113
30.68	4052
30.69	4054
30.7	4066
30.71	4125
30.72	4089
30.73	4123
30.74	4141
30.75	4118
30.76	4018
30.77	4030
30.78	4003
30.79	3997
30.8	4062
30.81	4020
30.82	3970
30.83	3939
30.84	4001
30.85	4018
30.86	3944
30.87	3900
30.88	3902
30.89	3879
30.9	3941
30.91	3961
30.92	3919
30.93	3858
30.94	3856
30.95	3847
30.96	3892
30.97	3838
30.98	3854
30.99	3906
31.0	3823
31.01	3827
31.02	3808
31.03	3893
31.04	3972
31.05	3812
31.06	3781
31.07	3799
31.08	3854
31.09	3923
31.1	3900
31.11	3813
31.12	3765
31.13	3838
31.14	3859
31.15	3835
31.16	3851
31.17	3806
31.18	3802
31.19	3744
31.2	3739
31.21	3813
31.22	3790
31.23	3700
31.24	3811
31.25	3799
31.26	3742
31.27	3807
31.28	3769
31.29	3730
31.3	3762
31.31	3830
31.32	3762
31.33	3661
31.34	3723
31.35	3763
31.36	3678
31.37	3665
31.38	3634
31.39	3645
31.4	3667
31.41	3676
31.42	3663
31.43	3656
31.44	3638
31.45	3638
31.46	3655
31.47	3626
31.48	3645
31.49	3703
31.5	3657
31.51	3631
31.52	3659
31.53	3643
31.54	3652
31.55	3611
31.56	3580
31.57	3630
31.58	3652
31.59	3661
31.6	3703
31.61	3624
31.62	3652
31.63	3560
31.64	3569
31.65	3605
31.66	3666
31.67	3598
31.68	3607
31.69	3642
31.7	3593
31.71	3528
31.72	3519
31.73	3617
31.74	3581
31.75	3593
31.76	3516
31.77	3544
31.78	3537
31.79	3581
31.8	3611
31.81	3630
31.82	3584
31.83	3532
31.84	3556
31.85	3566
31.86	3558
31.87	3499
31.88	3477
31.89	3503
31.9	3504
31.91	3603
31.92	3477
31.93	3439
31.94	3491
31.95	3576
31.96	3531
31.97	3577
31.98	3491
31.99	3471
32.0	3511
32.01	3485
32.02	3524
32.03	3499
32.04	3486
32.05	3447
32.06	3476
32.07	3442
32.08	3421
32.09	3433
32.1	3443
32.11	3499
32.12	3506
32.13	3608
32.14	3532
32.15	3485
32.16	3476
32.17	3525
32.18	3468
32.19	3518
32.2	3505
32.21	3463
32.22	3492
32.23	3506
32.24	3536
32.25	3547
32.26	3486
32.27	3409
32.28	3451
32.29	3516
32.3	3516
32.31	3457
32.32	3542
32.33	3529
32.34	3478
32.35	3517
32.36	3513
32.37	3443
32.38	3488
32.39	3420
32.4	3448
32.41	3534
32.42	3591
32.43	3554
32.44	3611
32.45	3634
32.46	3667
32.47	3596
32.48	3612
32.49	3711
32.5	3673
32.51	3681
32.52	3698
32.53	3700
32.54	3786
32.55	3868
32.56	3911
32.57	3986
32.58	4045
32.59	4126
32.6	4187
32.61	4253
32.62	4300
32.63	4343
32.64	4384
32.65	4551
32.66	4644
32.67	4745
32.68	4839
32.69	4921
32.7	5019
32.71	5170
32.72	5216
32.73	5276
32.74	5417
32.75	5289
32.76	5401
32.77	5428
32.78	5443
32.79	5382
32.8	5233
32.81	5227
32.82	5189
32.83	5054
32.84	4941
32.85	4859
32.86	4734
32.87	4549
32.88	4465
32.89	4339
32.9	4252
32.91	4183
32.92	4083
32.93	3911
32.94	3809
32.95	3772
32.96	3694
32.97	3679
32.98	3667
32.99	3646
33.0	3488
33.01	3507
33.02	3498
33.03	3495
33.04	3455
33.05	3411
33.06	3362
33.07	3283
33.08	3289
33.09	3309
33.1	3358
33.11	3393
33.12	3285
33.13	3266
33.14	3265
33.15	3277
33.16	3268
33.17	3244
33.18	3269
33.19	3238
33.2	3234
33.21	3289
33.22	3416
33.23	3264
33.24	3161
33.25	3225
33.26	3215
33.27	3169
33.28	3129
33.29	3150
33.3	3174
33.31	3209
33.32	3186
33.33	3112
33.34	3164
33.35	3194
33.36	3160
33.37	3164
33.38	3120
33.39	3132
33.4	3144
33.41	3147
33.42	3139
33.43	3123
33.44	3158
33.45	3182
33.46	3130
33.47	3094
33.48	3094
33.49	3090
33.5	3083
33.51	3128
33.52	3146
33.53	3148
33.54	3123
33.55	3103
33.56	3113
33.57	3063
33.58	3114
33.59	3129
33.6	3064
33.61	3040
33.62	3017
33.63	3071
33.64	3068
33.65	3077
33.66	3133
33.67	3099
33.68	3027
33.69	2988
33.7	3038
33.71	2977
33.72	3055
33.73	3045
33.74	2996
33.75	3082
33.76	3075
33.77	3053
33.78	3088
33.79	3099
33.8	3070
33.81	3065
33.82	3018
33.83	3030
33.84	2984
33.85	3003
33.86	3050
33.87	3039
33.88	3034
33.89	3022
33.9	2981
33.91	2964
33.92	2902
33.93	2941
33.94	3043
33.95	3075
33.96	3037
33.97	2990
33.98	2968
33.99	2977
34.0	2973
34.01	3008
34.02	3043
34.03	3065
34.04	3019
34.05	2976
34.06	2953
34.07	2987
34.08	3007
34.09	2980
34.1	2970
34.11	2974
34.12	2976
34.13	2973
34.14	2982
34.15	2989
34.16	2950
34.17	2921
34.18	2917
34.19	2952
34.2	2976
34.21	2975
34.22	2958
34.23	2945
34.24	2995
34.25	2989
34.26	2941
34.27	2953
34.28	2961
34.29	2922
34.3	2932
34.31	2917
34.32	2888
34.33	2938
34.34	2991
34.35	2945
34.36	2928
34.37	2919
34.38	2942
34.39	2951
34.4	2937
34.41	2912
34.42	2926
34.43	3008
34.44	3001
34.45	2946
34.46	2934
34.47	2911
34.48	2907
34.49	2905
34.5	2941
34.51	2969
34.52	2959
34.53	2957
34.54	2966
34.55	2938
34.56	2930
34.57	2931
34.58	2933
34.59	2934
34.6	2930
34.61	2893
34.62	2838
34.63	2822
34.64	2889
34.65	2979
34.66	2960
34.67	2908
34.68	2915
34.69	2879
34.7	2840
34.71	2903
34.72	2972
34.73	2967
34.74	2900
34.75	2896
34.76	2906
34.77	2913
34.78	2933
34.79	2938
34.8	2896
34.81	2894
34.82	2935
34.83	2899
34.84	2857
34.85	2930
34.86	2951
34.87	2922
34.88	2940
34.89	2972
34.9	2915
34.91	2902
34.92	2902
34.93	2882
34.94	2887
34.95	2862
34.96	2855
34.97	2894
34.98	2948
34.99	2996
35.0	2963
35.01	2914
35.02	2904
35.03	2939
35.04	2932
35.05	2902
35.06	2892
35.07	2912
35.08	2916
35.09	2880
35.1	2902
35.11	2944
35.12	2942
35.13	2863
35.14	2820
35.15	2878
35.16	2878
35.17	2867
35.18	2899
35.19	2948
35.2	2898
35.21	2855
35.22	2897
35.23	2902
35.24	2867
35.25	2883
35.26	2924
35.27	2905
35.28	2912
35.29	2918
35.3	2877
35.31	2916
35.32	2886
35.33	2880
35.34	2962
35.35	2930
35.36	2832
35.37	2883
35.38	2967
35.39	2950
35.4	2886
35.41	2867
35.42	2859
35.43	2854
35.44	2890
35.45	2911
35.46	2897
35.47	2900
35.48	2957
35.49	2976
35.5	2969
35.51	2936
35.52	2884
35.53	2875
35.54	2903
35.55	2911
35.56	2885
35.57	2872
35.58	2891
35.59	2894
35.6	2886
35.61	2899
35.62	2913
35.63	2898
35.64	2871
35.65	2877
35.66	2893
35.67	2874
35.68	2868
35.69	2887
35.7	2905
35.71	2913
35.72	2886
35.73	2859
35.74	2860
35.75	2878
35.76	2886
35.77	2885
35.78	2956
35.79	3002
35.8	2948
35.81	2895
35.82	2878
35.83	2891
35.84	2886
35.85	2904
35.86	2893
35.87	2845
35.88	2854
35.89	2865
35.9	2872
35.91	2911
35.92	2923
35.93	2866
35.94	2830
35.95	2822
35.96	2853
35.97	2899
35.98	2893
35.99	2909
36.0	2913
36.01	2893
36.02	2915
36.03	2897
36.04	2862
36.05	2878
36.06	2873
36.07	2837
36.08	2849
36.09	2901
36.1	2873
36.11	2817
36.12	2869
36.13	2903
36.14	2874
36.15	2880
36.16	2885
36.17	2925
36.18	2909
36.19	2835
36.2	2838
36.21	2899
36.22	2910
36.23	2892
36.24	2894
36.25	2859
36.26	2858
36.27	2880
36.28	2840
36.29	2838
36.3	2880
36.31	2848
36.32	2827
36.33	2869
36.34	2884
36.35	2859
36.36	2852
36.37	2870
36.38	2892
36.39	2862
36.4	2842
36.41	2843
36.42	2833
36.43	2874
36.44	2883
36.45	2877
36.46	2887
36.47	2911
36.48	2893
36.49	2838
36.5	2854
36.51	2858
36.52	2814
36.53	2841
36.54	2865
36.55	2834
36.56	2865
36.57	2901
36.58	2907
36.59	2878
36.6	2832
36.61	2831
36.62	2829
36.63	2815
36.64	2830
36.65	2846
36.66	2837
36.67	2825
36.68	2845
36.69	2878
36.7	2884
36.71	2874
36.72	2882
36.73	2895
36.74	2891
36.75	2872
36.76	2884
36.77	2953
36.78	2998
36.79	2958
36.8	2888
36.81	2920
36.82	3014
36.83	3029
36.84	3046
36.85	3089
36.86	3073
36.87	3061
36.88	3060
36.89	3045
36.9	3042
36.91	3047
36.92	3018
36.93	2999
36.94	3014
36.95	3006
36.96	2980
36.97	2980
36.98	3003
36.99	2986
37.0	2918
37.01	2891
37.02	2868
37.03	2865
37.04	2902
37.05	2845
37.06	2788
37.07	2788
37.08	2761
37.09	2756
37.1	2764
37.11	2750
37.12	2733
37.13	2726
37.14	2756
37.15	2793
37.16	2780
37.17	2742
37.18	2731
37.19	2712
37.2	2679
37.21	2683
37.22	2675
37.23	2648
37.24	2710
37.25	2759
37.26	2743
37.27	2743
37.28	2697
37.29	2668
37.3	2702
37.31	2714
37.32	2700
37.33	2686
37.34	2682
37.35	2688
37.36	2690
37.37	2699
37.38	2725
37.39	2703
37.4	2696
37.41	2741
37.42	2754
37.43	2760
37.44	2763
37.45	2790
37.46	2791
37.47	2739
37.48	2750
37.49	2805
37.5	2868
37.51	2895
37.52	2931
37.53	2974
37.54	2946
37.55	2936
37.56	3029
37.57	3133
37.58	3177
37.59	3188
37.6	3238
37.61	3290
37.62	3350
37.63	3407
37.64	3458
37.65	3544
37.66	3601
37.67	3691
37.68	3725
37.69	3760
37.7	3830
37.71	3910
37.72	3938
37.73	3881
37.74	3886
37.75	3879
37.76	3860
37.77	3814
37.78	3745
37.79	3717
37.8	3687
37.81	3614
37.82	3531
37.83	3462
37.84	3342
37.85	3318
37.86	3318
37.87	3239
37.88	3168
37.89	3091
37.9	2986
37.91	2955
37.92	2878
37.93	2854
37.94	2794
37.95	2744
37.96	2719
37.97	2663
37.98	2665
37.99	2687
38.0	2694
38.01	2682
38.02	2652
38.03	2677
38.04	2719
38.05	2702
38.06	2637
38.07	2607
38.08	2580
38.09	2557
38.1	2574
38.11	2572
38.12	2566
38.13	2559
38.14	2559
38.15	2554
38.16	2495
38.17	2487
38.18	2522
38.19	2549
38.2	2560
38.21	2558
38.22	2496
38.23	2490
38.24	2534
38.25	2517
38.26	2499
38.27	2474
38.28	2469
38.29	2474
38.3	2465
38.31	2484
38.32	2515
38.33	2491
38.34	2486
38.35	2477
38.36	2464
38.37	2469
38.38	2459
38.39	2500
38.4	2484
38.41	2433
38.42	2428
38.43	2429
38.44	2421
38.45	2437
38.46	2436
38.47	2506
38.48	2488
38.49	2420
38.5	2451
38.51	2478
38.52	2471
38.53	2482
38.54	2483
38.55	2460
38.56	2448
38.57	2457
38.58	2491
38.59	2503
38.6	2441
38.61	2424
38.62	2451
38.63	2419
38.64	2421
38.65	2422
38.66	2417
38.67	2442
38.68	2495
38.69	2479
38.7	2437
38.71	2455
38.72	2441
38.73	2396
38.74	2419
38.75	2461
38.76	2479
38.77	2516
38.78	2478
38.79	2440
38.8	2407
38.81	2404
38.82	2446
38.83	2443
38.84	2451
38.85	2458
38.86	2446
38.87	2431
38.88	2418
38.89	2419
38.9	2412
38.91	2409
38.92	2432
38.93	2364
38.94	2301
38.95	2363
38.96	2359
38.97	2301
38.98	2400
38.99	2409
39.0	2397
39.01	2408
39.02	2414
39.03	2420
39.04	2437
39.05	2418
39.06	2402
39.07	2369
39.08	2353
39.09	2347
39.1	2366
39.11	2402
39.12	2395
39.13	2399
39.14	2441
39.15	2425
39.16	2392
39.17	2368
39.18	2372
39.19	2407
39.2	2420
39.21	2382
39.22	2419
39.23	2429
39.24	2339
39.25	2364
39.26	2410
39.27	2371
39.28	2356
39.29	2356
39.3	2351
39.31	2348
39.32	2316
39.33	2295
39.34	2360
39.35	2383
39.36	2373
39.37	2359
39.38	2347
39.39	2380
39.4	2410
39.41	2438
39.42	2367
39.43	2330
39.44	2335
39.45	2360
39.46	2378
39.47	2406
39.48	2385
39.49	2363
39.5	2396
39.51	2400
39.52	2385
39.53	2366
39.54	2394
39.55	2387
39.56	2331
39.57	2296
39.58	2296
39.59	2326
39.6	2278
39.61	2304
39.62	2294
39.63	2276
39.64	2344
39.65	2364
39.66	2403
39.67	2386
39.68	2357
39.69	2338
39.7	2331
39.71	2314
39.72	2296
39.73	2298
39.74	2293
39.75	2354
39.76	2356
39.77	2367
39.78	2382
39.79	2358
39.8	2387
39.81	2388
39.82	2375
39.83	2342
39.84	2340
39.85	2346
39.86	2346
39.87	2356
39.88	2365
39.89	2338
39.9	2329
39.91	2306
39.92	2325
39.93	2353
39.94	2336
39.95	2342
39.96	2338
39.97	2268
39.98	2268
39.99	2305
40.0	2311
40.01	2291
40.02	2303
40.03	2375
40.04	2375
40.05	2402
40.06	2349
40.07	2364
40.08	2366
40.09	2305
40.1	2326
40.11	2328
40.12	2363
40.13	2380
40.14	2326
40.15	2293
40.16	2313
40.17	2337
40.18	2315
40.19	2289
40.2	2350
40.21	2372
40.22	2299
40.23	2313
40.24	2317
40.25	2360
40.26	2370
40.27	2392
40.28	2340
40.29	2278
40.3	2309
40.31	2320
40.32	2327
40.33	2365
40.34	2355
40.35	2339
40.36	2324
40.37	2304
40.38	2312
40.39	2269
40.4	2296
40.41	2276
40.42	2239
40.43	2297
40.44	2315
40.45	2287
40.46	2275
40.47	2316
40.48	2349
40.49	2318
40.5	2289
40.51	2325
40.52	2323
40.53	2285
40.54	2307
40.55	2283
40.56	2310
40.57	2320
40.58	2298
40.59	2336
40.6	2331
40.61	2327
40.62	2355
40.63	2329
40.64	2296
40.65	2274
40.66	2287
40.67	2286
40.68	2315
40.69	2358
40.7	2297
40.71	2265
40.72	2253
40.73	2318
40.74	2317
40.75	2314
40.76	2304
40.77	2279
40.78	2237
40.79	2252
40.8	2312
40.81	2328
40.82	2320
40.83	2297
40.84	2321
40.85	2281
40.86	2334
40.87	2339
40.88	2317
40.89	2299
40.9	2300
40.91	2282
40.92	2290
40.93	2297
40.94	2292
40.95	2330
40.96	2324
40.97	2305
40.98	2276
40.99	2316
41.0	2381
41.01	2334
41.02	2408
41.03	2368
41.04	2338
41.05	2366
41.06	2331
41.07	2332
41.08	2305
41.09	2334
41.1	2367
41.11	2356
41.12	2342
41.13	2351
41.14	2345
41.15	2337
41.16	2379
41.17	2391
41.18	2365
41.19	2326
41.2	2296
41.21	2321
41.22	2381
41.23	2374
41.24	2353
41.25	2434
41.26	2429
41.27	2485
41.28	2479
41.29	2478
41.3	2589
41.31	2567
41.32	2609
41.33	2597
41.34	2618
41.35	2625
41.36	2635
41.37	2644
41.38	2777
41.39	2833
41.4	2856
41.41	2833
41.42	2813
41.43	2789
41.44	2868
41.45	2819
41.46	2731
41.47	2787
41.48	2728
41.49	2744
41.5	2731
41.51	2676
41.52	2675
41.53	2607
41.54	2649
41.55	2626
41.56	2592
41.57	2610
41.58	2620
41.59	2575
41.6	2490
41.61	2517
41.62	2478
41.63	2418
41.64	2405
41.65	2455
41.66	2423
41.67	2380
41.68	2391
41.69	2343
41.7	2325
41.71	2381
41.72	2390
41.73	2394
41.74	2339
41.75	2313
41.76	2333
41.77	2350
41.78	2306
41.79	2267
41.8	2272
41.81	2216
41.82	2256
41.83	2304
41.84	2304
41.85	2269
41.86	2304
41.87	2384
41.88	2288
41.89	2238
41.9	2286
41.91	2320
41.92	2304
41.93	2305
41.94	2312
41.95	2346
41.96	2367
41.97	2292
41.98	2249
41.99	2216
42.0	2304
42.01	2337
42.02	2320
42.03	2320
42.04	2262
42.05	2254
42.06	2252
42.07	2254
42.08	2273
42.09	2287
42.1	2279
42.11	2320
42.12	2247
42.13	2241
42.14	2277
42.15	2271
42.16	2268
42.17	2261
42.18	2239
42.19	2199
42.2	2221
42.21	2288
42.22	2326
42.23	2216
42.24	2235
42.25	2275
42.26	2229
42.27	2205
42.28	2226
42.29	2264
42.3	2299
42.31	2360
42.32	2295
42.33	2262
42.34	2205
42.35	2306
42.36	2262
42.37	2226
42.38	2300
42.39	2279
42.4	2260
42.41	2268
42.42	2213
42.43	2219
42.44	2212
42.45	2245
42.46	2203
42.47	2203
42.48	2264
42.49	2280
42.5	2279
42.51	2271
42.52	2242
42.53	2229
42.54	2187
42.55	2223
42.56	2236
42.57	2252
42.58	2236
42.59	2176
42.6	2217
42.61	2236
42.62	2266
42.63	2257
42.64	2208
42.65	2176
42.66	2204
42.67	2167
42.68	2163
42.69	2231
42.7	2227
42.71	2291
42.72	2239
42.73	2263
42.74	2258
42.75	2202
42.76	2201
42.77	2246
42.78	2210
42.79	2222
42.8	2277
42.81	2181
42.82	2144
42.83	2212
42.84	2189
42.85	2220
42.86	2217
42.87	2239
42.88	2264
42.89	2251
42.9	2211
42.91	2188
42.92	2195
42.93	2244
42.94	2231
42.95	2202
42.96	2194
42.97	2176
42.98	2207
42.99	2255
43.0	2249
43.01	2184
43.02	2173
43.03	2224
43.04	2196
43.05	2219
43.06	2193
43.07	2179
43.08	2210
43.09	2217
43.1	2193
43.11	2170
43.12	2155
43.13	2159
43.14	2165
43.15	2189
43.16	2142
43.17	2194
43.18	2218
43.19	2235
43.2	2261
43.21	2218
43.22	2175
43.23	2195
43.24	2231
43.25	2156
43.26	2191
43.27	2243
43.28	2223
43.29	2248
43.3	2198
43.31	2143
43.32	2168
43.33	2197
43.34	2213
43.35	2222
43.36	2176
43.37	2147
43.38	2160
43.39	2100
43.4	2081
43.41	2113
43.42	2159
43.43	2230
43.44	2232
43.45	2195
43.46	2161
43.47	2110
43.48	2136
43.49	2133
43.5	2163
43.51	2173
43.52	2152
43.53	2138
43.54	2158
43.55	2187
43.56	2188
43.57	2164
43.58	2180
43.59	2151
43.6	2163
43.61	2163
43.62	2142
43.63	2116
43.64	2156
43.65	2173
43.66	2100
43.67	2099
43.68	2186
43.69	2192
43.7	2139
43.71	2140
43.72	2138
43.73	2142
43.74	2128
43.75	2169
43.76	2191
43.77	2157
43.78	2150
43.79	2178
43.8	2191
43.81	2153
43.82	2133
43.83	2078
43.84	2113
43.85	2165
43.86	2129
43.87	2101
43.88	2127
43.89	2147
43.9	2075
43.91	2041
43.92	2094
43.93	2163
43.94	2212
43.95	2215
43.96	2175
43.97	2136
43.98	2126
43.99	2153
44.0	2142
44.01	2140
44.02	2163
44.03	2100
44.04	2088
44.05	2102
44.06	2105
44.07	2107
44.08	2133
44.09	2186
44.1	2155
44.11	2099
44.12	2124
44.13	2129
44.14	2134
44.15	2139
44.16	2141
44.17	2151
44.18	2129
44.19	2084
44.2	2130
44.21	2128
44.22	2087
44.23	2069
44.24	2103
44.25	2108
44.26	2130
44.27	2155
44.28	2108
44.29	2092
44.3	2100
44.31	2112
44.32	2169
44.33	2190
44.34	2185
44.35	2130
44.36	2114
44.37	2152
44.38	2171
44.39	2141
44.4	2102
44.41	2081
44.42	2074
44.43	2079
44.44	2105
44.45	2170
44.46	2160
44.47	2158
44.48	2098
44.49	2102
44.5	2084
44.51	2057
44.52	2085
44.53	2080
44.54	2143
44.55	2154
44.56	2114
44.57	2122
44.58	2150
44.59	2117
44.6	2071
44.61	2051
44.62	2099
44.63	2109
44.64	2065
44.65	2125
44.66	2161
44.67	2106
44.68	2062
44.69	2067
44.7	2036
44.71	2095
44.72	2125
44.73	2113
44.74	2088
44.75	2101
44.76	2115
44.77	2122
44.78	2122
44.79	2077
44.8	2075
44.81	2086
44.82	2117
44.83	2145
44.84	2103
44.85	2087
44.86	2082
44.87	2067
44.88	2060
44.89	2094
44.9	2096
44.91	2074
44.92	2085
44.93	2157
44.94	2135
44.95	2042
44.96	2009
44.97	2076
44.98	2083
44.99	2076
45.0	2077
45.01	2094
45.02	2096
45.03	2122
45.04	2115
45.05	2080
45.06	2094
45.07	2078
45.08	2045
45.09	2051
45.1	2049
45.11	2063
45.12	2113
45.13	2056
45.14	2056
45.15	2067
45.16	2099
45.17	2074
45.18	2089
45.19	2097
45.2	2081
45.21	2087
45.22	2111
45.23	2112
45.24	2109
45.25	2084
45.26	2042
45.27	2025
45.28	2038
45.29	2058
45.3	2030
45.31	2045
45.32	2083
45.33	2081
45.34	2059
45.35	2101
45.36	2071
45.37	2067
45.38	2082
45.39	2039
45.4	2018
45.41	2015
45.42	2070
45.43	2100
45.44	2085
45.45	2093
45.46	2121
45.47	2097
45.48	2074
45.49	2080
45.5	2068
45.51	2096
45.52	2107
45.53	2100
45.54	2097
45.55	2116
45.56	2137
45.57	2138
45.58	2123
45.59	2088
45.6	2072
45.61	2059
45.62	2014
45.63	2041
45.64	2139
45.65	2112
45.66	2046
45.67	2013
45.68	2005
45.69	2004
45.7	2007
45.71	2024
45.72	2034
45.73	2058
45.74	2043
45.75	2039
45.76	2059
45.77	2084
45.78	2092
45.79	2064
45.8	2039
45.81	2011
45.82	2012
45.83	2041
45.84	2038
45.85	2035
45.86	2040
45.87	2077
45.88	2068
45.89	2045
45.9	2068
45.91	2019
45.92	2001
45.93	2059
45.94	2068
45.95	2018
45.96	2022
45.97	2023
45.98	2065
45.99	2107
46.0	2082
46.01	2053
46.02	2046
46.03	2055
46.04	2030
46.05	2007
46.06	2019
46.07	2048
46.08	2071
46.09	2056
46.1	2032
46.11	2053
46.12	2127
46.13	2085
46.14	2021
46.15	2061
46.16	2057
46.17	2029
46.18	2023
46.19	2050
46.2	2068
46.21	2099
46.22	2089
46.23	2073
46.24	2078
46.25	2078
46.26	2071
46.27	2037
46.28	2025
46.29	2039
46.3	2071
46.31	2057
46.32	2077
46.33	2081
46.34	2034
46.35	2041
46.36	2022
46.37	2013
46.38	1998
46.39	2016
46.4	2050
46.41	2069
46.42	2087
46.43	2075
46.44	2055
46.45	2054
46.46	2017
46.47	2016
46.48	2045
46.49	2041
46.5	2017
46.51	1990
46.52	2036
46.53	2064
46.54	2079
46.55	2075
46.56	2075
46.57	2046
46.58	2017
46.59	1996
46.6	1975
46.61	2006
46.62	2024
46.63	2032
46.64	2042
46.65	2053
46.66	2051
46.67	2027
46.68	2050
46.69	2080
46.7	2092
46.71	2081
46.72	2042
46.73	2017
46.74	2029
46.75	2022
46.76	2024
46.77	2038
46.78	2016
46.79	2034
46.8	2062
46.81	2031
46.82	2023
46.83	2000
46.84	2028
46.85	2053
46.86	2025
46.87	2000
46.88	1995
46.89	1988
46.9	2029
46.91	2055
46.92	2059
46.93	2042
46.94	2043
46.95	2030
46.96	2072
46.97	2085
46.98	2070
46.99	2035
47.0	2008
47.01	2026
47.02	2041
47.03	2048
47.04	2030
47.05	2031
47.06	2052
47.07	2080
47.08	2079
47.09	2028
47.1	1994
47.11	2000
47.12	1998
47.13	2027
47.14	2052
47.15	2056
47.16	2061
47.17	2075
47.18	2071
47.19	2086
47.2	2100
47.21	2063
47.22	2005
47.23	2020
47.24	2025
47.25	1996
47.26	1977
47.27	2009
47.28	2052
47.29	2071
47.3	2077
47.31	2073
47.32	2030
47.33	2020
47.34	2050
47.35	2046
47.36	1987
47.37	1989
47.38	2056
47.39	2082
47.4	2079
47.41	2110
47.42	2127
47.43	2085
47.44	2045
47.45	2032
47.46	2029
47.47	2078
47.48	2102
47.49	2078
47.5	2063
47.51	2063
47.52	2052
47.53	2033
47.54	1968
47.55	1949
47.56	2012
47.57	2030
47.58	2044
47.59	2046
47.6	2058
47.61	2071
47.62	2051
47.63	2047
47.64	2041
47.65	2070
47.66	2089
47.67	2066
47.68	2029
47.69	2001
47.7	2027
47.71	2033
47.72	2040
47.73	2025
47.74	2014
47.75	2026
47.76	1993
47.77	1962
47.78	1971
47.79	2006
47.8	2009
47.81	2016
47.82	2060
47.83	2032
47.84	2017
47.85	2022
47.86	2011
47.87	1989
47.88	1991
47.89	2025
47.9	2017
47.91	1988
47.92	2015
47.93	2007
47.94	2011
47.95	2040
47.96	2042
47.97	2038
47.98	2028
47.99	2015
48.0	2009
48.01	2038
48.02	2053
48.03	2012
48.04	2023
48.05	2077
48.06	2089
48.07	2071
48.08	2021
48.09	1997
48.1	2018
48.11	2026
48.12	1999
48.13	1999
48.14	2019
48.15	2017
48.16	2014
48.17	2005
48.18	2002
48.19	2006
48.2	1980
48.21	1977
48.22	2026
48.23	2066
48.24	2040
48.25	2070
48.26	2077
48.27	2029
48.28	2034
48.29	2063
48.3	2082
48.31	2045
48.32	2044
48.33	2022
48.34	1966
48.35	1974
48.36	2016
48.37	2033
48.38	2035
48.39	2055
48.4	2076
48.41	2067
48.42	2058
48.43	2045
48.44	2035
48.45	2036
48.46	2043
48.47	2033
48.48	2013
48.49	1976
48.5	1996
48.51	2045
48.52	2081
48.53	2066
48.54	2047
48.55	2079
48.56	2084
48.57	2055
48.58	2050
48.59	2056
48.6	2029
48.61	2037
48.62	2076
48.63	2099
48.64	2077
48.65	2041
48.66	2027
48.67	2046
48.68	2041
48.69	2057
48.7	2053
48.71	2077
48.72	2089
48.73	2030
48.74	1989
48.75	1999
48.76	2012
48.77	1997
48.78	1971
48.79	1985
48.8	2035
48.81	2065
48.82	2057
48.83	2022
48.84	1988
48.85	1976
48.86	1989
48.87	2011
48.88	2039
48.89	2047
48.9	1983
48.91	1988
48.92	2020
48.93	2018
48.94	2009
48.95	2010
48.96	2011
48.97	2010
48.98	2019
48.99	2031
49.0	2017
49.01	2002
49.02	2001
49.03	1999
49.04	2020
49.05	2042
49.06	2033
49.07	2007
49.08	2044
49.09	2053
49.1	2009
49.11	2014
49.12	2025
49.13	2053
49.14	2039
49.15	1987
49.16	1971
49.17	1984
49.18	2008
49.19	2031
49.2	2055
49.21	2061
49.22	2019
49.23	1965
49.24	1978
49.25	2036
49.26	2045
49.27	2014
49.28	2023
49.29	2042
49.3	2033
49.31	2020
49.32	2037
49.33	2065
49.34	2053
49.35	2001
49.36	2009
49.37	2052
49.38	2046
49.39	2050
49.4	2056
49.41	2068
49.42	2069
49.43	2050
49.44	2041
49.45	2043
49.46	2049
49.47	2097
49.48	2143
49.49	2140
49.5	2099
49.51	2090
49.52	2093
49.53	2090
49.54	2093
49.55	2110
49.56	2142
49.57	2126
49.58	2093
49.59	2079
49.6	2126
49.61	2175
49.62	2169
49.63	2153
49.64	2138
49.65	2129
49.66	2145
49.67	2190
49.68	2215
49.69	2227
49.7	2226
49.71	2195
49.72	2203
49.73	2253
49.74	2272
49.75	2283
49.76	2314
49.77	2330
49.78	2371
49.79	2410
49.8	2425
49.81	2442
49.82	2450
49.83	2481
49.84	2522
49.85	2606
49.86	2683
49.87	2714
49.88	2759
49.89	2829
49.9	2919
49.91	2992
49.92	3064
49.93	3126
49.94	3228
49.95	3372
49.96	3490
49.97	3617
49.98	3759
49.99	3920
50.0	4085
50.01	4251
50.02	4476
50.03	4702
50.04	4870
50.05	5008
50.06	5235
50.07	5505
50.08	5643
50.09	5739
50.1	5914
50.11	6055
50.12	6136
50.13	6151
50.14	6144
50.15	6098
50.16	6024
50.17	5986
50.18	5937
50.19	5872
50.2	5791
50.21	5625
50.22	5456
50.23	5311
50.24	5188
50.25	5079
50.26	4899
50.27	4728
50.28	4582
50.29	4393
50.3	4221
50.31	4101
50.32	3962
50.33	3798
50.34	3666
50.35	3565
50.36	3401
50.37	3270
50.38	3195
50.39	3074
50.4	2943
50.41	2842
50.42	2823
50.43	2792
50.44	2697
50.45	2619
50.46	2577
50.47	2560
50.48	2530
50.49	2449
50.5	2375
50.51	2375
50.52	2374
50.53	2322
50.54	2253
50.55	2213
50.56	2219
50.57	2202
50.58	2167
50.59	2146
50.6	2151
50.61	2148
50.62	2131
50.63	2125
50.64	2110
50.65	2118
50.66	2136
50.67	2106
50.68	2088
50.69	2114
50.7	2088
50.71	2015
50.72	1993
50.73	2032
50.74	2050
50.75	2036
50.76	2018
50.77	2030
50.78	2053
50.79	2039
50.8	2001
50.81	1980
50.82	1975
50.83	1990
50.84	1996
50.85	1990
50.86	2004
50.87	2002
50.88	2017
50.89	1998
50.9	1971
50.91	1974
50.92	1945
50.93	1945
50.94	1975
50.95	1982
50.96	1974
50.97	1963
50.98	1966
50.99	1973
51.0	1944
51.01	1908
51.02	1919
51.03	1910
51.04	1916
51.05	1963
51.06	1943
51.07	1895
51.08	1878
51.09	1895
51.1	1940
51.11	1945
51.12	1919
51.13	1908
51.14	1903
51.15	1895
51.16	1930
51.17	1957
51.18	1942
51.19	1948
51.2	1955
51.21	1935
51.22	1934
51.23	1952
51.24	1933
51.25	1923
51.26	1933
51.27	1896
51.28	1870
51.29	1876
51.3	1884
51.31	1869
51.32	1837
51.33	1851
51.34	1885
51.35	1895
51.36	1885
51.37	1888
51.38	1905
51.39	1912
51.4	1899
51.41	1904
51.42	1888
51.43	1858
51.44	1894
51.45	1930
51.46	1942
51.47	1919
51.48	1884
51.49	1885
51.5	1906
51.51	1917
51.52	1904
51.53	1912
51.54	1910
51.55	1902
51.56	1913
51.57	1894
51.58	1875
51.59	1887
51.6	1893
51.61	1895
51.62	1881
51.63	1864
51.64	1860
51.65	1846
51.66	1843
51.67	1870
51.68	1875
51.69	1881
51.7	1882
51.71	1859
51.72	1834
51.73	1838
51.74	1852
51.75	1857
51.76	1860
51.77	1855
51.78	1884
51.79	1913
51.8	1910
51.81	1862
51.82	1849
51.83	1859
51.84	1854
51.85	1860
51.86	1858
51.87	1886
51.88	1887
51.89	1886
51.9	1881
51.91	1860
51.92	1855
51.93	1834
51.94	1846
51.95	1861
51.96	1856
51.97	1864
51.98	1857
51.99	1852
52.0	1884
52.01	1913
52.02	1894
52.03	1858
52.04	1880
52.05	1909
52.06	1895
52.07	1900
52.08	1879
52.09	1857
52.1	1863
52.11	1835
52.12	1824
52.13	1865
52.14	1900
52.15	1879
52.16	1876
52.17	1862
52.18	1859
52.19	1872
52.2	1862
52.21	1853
52.22	1861
52.23	1859
52.24	1832
52.25	1842
52.26	1849
52.27	1849
52.28	1874
52.29	1866
52.3	1891
52.31	1901
52.32	1861
52.33	1825
52.34	1818
52.35	1843
52.36	1848
52.37	1857
52.38	1882
52.39	1878
52.4	1840
52.41	1814
52.42	1829
52.43	1856
52.44	1860
52.45	1876
52.46	1873
52.47	1887
52.48	1880
52.49	1838
52.5	1864
52.51	1877
52.52	1846
52.53	1797
52.54	1813
52.55	1849
52.56	1842
52.57	1860
52.58	1876
52.59	1848
52.6	1837
52.61	1850
52.62	1855
52.63	1861
52.64	1849
52.65	1837
52.66	1875
52.67	1900
52.68	1879
52.69	1885
52.7	1888
52.71	1906
52.72	1918
52.73	1897
52.74	1859
52.75	1855
52.76	1891
52.77	1892
52.78	1877
52.79	1881
52.8	1929
52.81	1984
52.82	1966
52.83	1941
52.84	1937
52.85	1931
52.86	1975
52.87	2026
52.88	2024
52.89	1999
52.9	1953
52.91	1961
52.92	2006
52.93	2038
52.94	2065
52.95	2103
52.96	2170
52.97	2178
52.98	2189
52.99	2301
53.0	2356
53.01	2397
53.02	2450
53.03	2544
53.04	2650
53.05	2708
53.06	2744
53.07	2795
53.08	2889
53.09	2996
53.1	3073
53.11	3146
53.12	3220
53.13	3235
53.14	3190
53.15	3174
53.16	3180
53.17	3188
53.18	3152
53.19	3111
53.2	3097
53.21	3021
53.22	2975
53.23	2958
53.24	2920
53.25	2861
53.26	2796
53.27	2752
53.28	2666
53.29	2593
53.3	2568
53.31	2527
53.32	2499
53.33	2471
53.34	2427
53.35	2383
53.36	2327
53.37	2248
53.38	2202
53.39	2165
53.4	2133
53.41	2113
53.42	2074
53.43	2043
53.44	2017
53.45	2013
53.46	1997
53.47	1967
53.48	1954
53.49	1932
53.5	1933
53.51	1945
53.52	1923
53.53	1910
53.54	1913
53.55	1890
53.56	1878
53.57	1941
53.58	1956
53.59	1933
53.6	1897
53.61	1891
53.62	1885
53.63	1877
53.64	1853
53.65	1839
53.66	1829
53.67	1832
53.68	1836
53.69	1839
53.7	1830
53.71	1839
53.72	1851
53.73	1869
53.74	1880
53.75	1867
53.76	1855
53.77	1863
53.78	1871
53.79	1835
53.8	1831
53.81	1863
53.82	1827
53.83	1834
53.84	1889
53.85	1883
53.86	1830
53.87	1812
53.88	1835
53.89	1836
53.9	1816
53.91	1835
53.92	1852
53.93	1845
53.94	1820
53.95	1770
53.96	1784
53.97	1833
53.98	1851
53.99	1858
54.0	1828
54.01	1808
54.02	1801
54.03	1781
54.04	1785
54.05	1804
54.06	1817
54.07	1827
54.08	1800
54.09	1787
54.1	1805
54.11	1801
54.12	1809
54.13	1831
54.14	1814
54.15	1763
54.16	1787
54.17	1816
54.18	1842
54.19	1874
54.2	1854
54.21	1830
54.22	1802
54.23	1838
54.24	1849
54.25	1797
54.26	1769
54.27	1782
54.28	1803
54.29	1820
54.3	1831
54.31	1859
54.32	1822
54.33	1802
54.34	1822
54.35	1823
54.36	1786
54.37	1775
54.38	1788
54.39	1814
54.4	1835
54.41	1867
54.42	1889
54.43	1836
54.44	1803
54.45	1788
54.46	1797
54.47	1791
54.48	1836
54.49	1848
54.5	1802
54.51	1757
54.52	1771
54.53	1784
54.54	1817
54.55	1828
54.56	1806
54.57	1759
54.58	1761
54.59	1807
54.6	1810
54.61	1812
54.62	1809
54.63	1825
54.64	1810
54.65	1780
54.66	1781
54.67	1765
54.68	1788
54.69	1822
54.7	1830
54.71	1864
54.72	1853
54.73	1817
54.74	1814
54.75	1849
54.76	1846
54.77	1830
54.78	1813
54.79	1784
54.8	1767
54.81	1757
54.82	1795
54.83	1805
54.84	1795
54.85	1833
54.86	1832
54.87	1784
54.88	1752
54.89	1814
54.9	1817
54.91	1777
54.92	1794
54.93	1810
54.94	1817
54.95	1780
54.96	1777
54.97	1810
54.98	1807
54.99	1822
55.0	1838
55.01	1827
55.02	1793
55.03	1776
55.04	1804
55.05	1829
55.06	1830
55.07	1824
55.08	1807
55.09	1819
55.1	1845
55.11	1825
55.12	1800
55.13	1797
55.14	1810
55.15	1823
55.16	1804
55.17	1764
55.18	1786
55.19	1834
55.2	1829
55.21	1827
55.22	1873
55.23	1908
55.24	1901
55.25	1921
55.26	1906
55.27	1877
55.28	1884
55.29	1900
55.3	1947
55.31	1938
55.32	1879
55.33	1903
55.34	1902
55.35	1959
55.36	1931
55.37	1919
55.38	1968
55.39	2020
55.4	2051
55.41	2082
55.42	2099
55.43	2076
55.44	2108
55.45	2176
55.46	2198
55.47	2202
55.48	2201
55.49	2254
55.5	2381
55.51	2388
55.52	2358
55.53	2331
55.54	2305
55.55	2369
55.56	2413
55.57	2421
55.58	2465
55.59	2480
55.6	2464
55.61	2465
55.62	2427
55.63	2409
55.64	2412
55.65	2400
55.66	2392
55.67	2453
55.68	2461
55.69	2425
55.7	2365
55.71	2364
55.72	2367
55.73	2328
55.74	2261
55.75	2204
55.76	2255
55.77	2262
55.78	2251
55.79	2231
55.8	2147
55.81	2069
55.82	2110
55.83	2118
55.84	2060
55.85	2037
55.86	2050
55.87	2059
55.88	2003
55.89	1940
55.9	1913
55.91	1921
55.92	1907
55.93	1838
55.94	1856
55.95	1930
55.96	1919
55.97	1866
55.98	1826
55.99	1838
56.0	1890
56.01	1895
56.02	1825
56.03	1807
56.04	1829
56.05	1814
56.06	1803
56.07	1801
56.08	1794
56.09	1767
56.1	1768
56.11	1786
56.12	1783
56.13	1781
56.14	1804
56.15	1804
56.16	1787
56.17	1813
56.18	1826
56.19	1798
56.2	1797
56.21	1745
56.22	1777
56.23	1824
56.24	1797
56.25	1783
56.26	1773
56.27	1756
56.28	1749
56.29	1787
56.3	1783
56.31	1749
56.32	1756
56.33	1719
56.34	1713
56.35	1773
56.36	1735
56.37	1682
56.38	1732
56.39	1732
56.4	1745
56.41	1739
56.42	1754
56.43	1752
56.44	1784
56.45	1811
56.46	1792
56.47	1779
56.48	1781
56.49	1777
56.5	1787
56.51	1753
56.52	1754
56.53	1766
56.54	1752
56.55	1731
56.56	1726
56.57	1753
56.58	1755
56.59	1764
56.6	1750
56.61	1748
56.62	1710
56.63	1728
56.64	1758
56.65	1756
56.66	1767
56.67	1776
56.68	1762
56.69	1755
56.7	1727
56.71	1772
56.72	1794
56.73	1766
56.74	1734
56.75	1734
56.76	1748
56.77	1767
56.78	1772
56.79	1758
56.8	1742
56.81	1714
56.82	1715
56.83	1745
56.84	1756
56.85	1738
56.86	1710
56.87	1707
56.88	1699
56.89	1674
56.9	1660
56.91	1691
56.92	1748
56.93	1718
56.94	1715
56.95	1718
56.96	1740
56.97	1746
56.98	1771
56.99	1756
57.0	1722
57.01	1725
57.02	1725
57.03	1723
57.04	1702
57.05	1712
57.06	1710
57.07	1681
57.08	1677
57.09	1701
57.1	1734
57.11	1743
57.12	1713
57.13	1736
57.14	1736
57.15	1712
57.16	1769
57.17	1752
57.18	1737
57.19	1746
57.2	1733
57.21	1695
57.22	1700
57.23	1721
57.24	1705
57.25	1718
57.26	1678
57.27	1705
57.28	1766
57.29	1739
57.3	1694
57.31	1709
57.32	1742
57.33	1751
57.34	1712
57.35	1729
57.36	1752
57.37	1731
57.38	1693
57.39	1695
57.4	1732
57.41	1722
57.42	1758
57.43	1742
57.44	1679
57.45	1691
57.46	1675
57.47	1688
57.48	1729
57.49	1716
57.5	1733
57.51	1771
57.52	1762
57.53	1712
57.54	1740
57.55	1746
57.56	1691
57.57	1720
57.58	1775
57.59	1769
57.6	1706
57.61	1658
57.62	1701
57.63	1721
57.64	1703
57.65	1696
57.66	1687
57.67	1722
57.68	1729
57.69	1739
57.7	1744
57.71	1739
57.72	1686
57.73	1665
57.74	1722
57.75	1713
57.76	1715
57.77	1705
57.78	1685
57.79	1746
57.8	1780
57.81	1737
57.82	1703
57.83	1720
57.84	1690
57.85	1680
57.86	1731
57.87	1757
57.88	1755
57.89	1692
57.9	1675
57.91	1710
57.92	1719
57.93	1733
57.94	1743
57.95	1715
57.96	1671
57.97	1696
57.98	1713
57.99	1668
58.0	1688
58.01	1724
58.02	1720
58.03	1731
58.04	1700
58.05	1685
58.06	1723
58.07	1700
58.08	1694
58.09	1679
58.1	1675
58.11	1655
58.12	1637
58.13	1651
58.14	1659
58.15	1653
58.16	1677
58.17	1714
58.18	1705
58.19	1712
58.2	1715
58.21	1694
58.22	1730
58.23	1721
58.24	1680
58.25	1674
58.26	1716
58.27	1774
58.28	1753
58.29	1680
58.3	1666
58.31	1685
58.32	1658
58.33	1710
58.34	1730
58.35	1659
58.36	1632
58.37	1636
58.38	1657
58.39	1660
58.4	1693
58.41	1668
58.42	1647
58.43	1650
58.44	1717
58.45	1710
58.46	1701
58.47	1715
58.48	1712
58.49	1703
58.5	1684
58.51	1702
58.52	1746
58.53	1756
58.54	1716
58.55	1698
58.56	1659
58.57	1658
58.58	1686
58.59	1723
58.6	1719
58.61	1705
58.62	1722
58.63	1650
58.64	1648
58.65	1667
58.66	1663
58.67	1675
58.68	1651
58.69	1655
58.7	1688
58.71	1723
58.72	1725
58.73	1684
58.74	1719
58.75	1712
58.76	1674
58.77	1643
58.78	1623
58.79	1661
58.8	1702
58.81	1708
58.82	1694
58.83	1754
58.84	1713
58.85	1721
58.86	1734
58.87	1704
58.88	1691
58.89	1677
58.9	1673
58.91	1684
58.92	1674
58.93	1687
58.94	1703
58.95	1699
58.96	1680
58.97	1665
58.98	1663
58.99	1673
59.0	1693
59.01	1693
59.02	1711
59.03	1685
59.04	1651
59.05	1696
59.06	1685
59.07	1694
59.08	1740
59.09	1749
59.1	1708
59.11	1714
59.12	1676
59.13	1668
59.14	1669
59.15	1684
59.16	1650
59.17	1624
59.18	1652
59.19	1670
59.2	1644
59.21	1657
59.22	1698
59.23	1703
59.24	1710
59.25	1705
59.26	1740
59.27	1706
59.28	1686
59.29	1666
59.3	1694
59.31	1670
59.32	1669
59.33	1693
59.34	1650
59.35	1665
59.36	1692
59.37	1696
59.38	1715
59.39	1692
59.4	1646
59.41	1658
59.42	1711
59.43	1719
59.44	1718
59.45	1721
59.46	1721
59.47	1653
59.48	1657
59.49	1656
59.5	1677
59.51	1709
59.52	1702
59.53	1672
59.54	1679
59.55	1695
59.56	1711
59.57	1716
59.58	1695
59.59	1691
59.6	1730
59.61	1732
59.62	1698
59.63	1717
59.64	1711
59.65	1741
59.66	1756
59.67	1724
59.68	1747
59.69	1771
59.7	1784
59.71	1819
59.72	1795
59.73	1760
59.74	1745
59.75	1818
59.76	1798
59.77	1794
59.78	1848
59.79	1812
59.8	1789
59.81	1832
59.82	1879
59.83	1909
59.84	1914
59.85	1864
59.86	1899
59.87	1974
59.88	1992
59.89	2022
59.9	2008
59.91	2075
59.92	2140
59.93	2167
59.94	2169
59.95	2145
59.96	2186
59.97	2188
59.98	2231
59.99	2258
60.0	2293
60.01	2245
60.02	2204
60.03	2182
60.04	2219
60.05	2266
60.06	2195
60.07	2144
60.08	2176
60.09	2187
60.1	2202
60.11	2167
60.12	2125
60.13	2090
60.14	2081
60.15	2081
60.16	2116
60.17	2022
60.18	2008
60.19	1987
60.2	1960
60.21	1962
60.22	1952
60.23	1888
60.24	1851
60.25	1861
60.26	1872
60.27	1870
60.28	1862
60.29	1813
60.3	1806
60.31	1817
60.32	1812
60.33	1834
60.34	1810
60.35	1773
60.36	1747
60.37	1745
60.38	1746
60.39	1757
60.4	1764
60.41	1736
60.42	1745
60.43	1764
60.44	1737
60.45	1729
60.46	1738
60.47	1759
60.48	1744
60.49	1733
60.5	1740
60.51	1722
60.52	1727
60.53	1684
60.54	1702
60.55	1717
60.56	1763
60.57	1773
60.58	1778
60.59	1760
60.6	1746
60.61	1707
60.62	1696
60.63	1693
60.64	1733
60.65	1708
60.66	1709
60.67	1693
60.68	1668
60.69	1724
60.7	1784
60.71	1760
60.72	1696
60.73	1712
60.74	1709
60.75	1714
60.76	1711
60.77	1706
60.78	1665
60.79	1661
60.8	1637
60.81	1632
60.82	1662
60.83	1662
60.84	1680
60.85	1678
60.86	1675
60.87	1693
60.88	1652
60.89	1670
60.9	1663
60.91	1629
60.92	1641
60.93	1668
60.94	1614
60.95	1653
60.96	1660
60.97	1637
60.98	1635
60.99	1638
61.0	1628
61.01	1634
61.02	1667
61.03	1652
61.04	1694
61.05	1692
61.06	1677
61.07	1661
61.08	1646
61.09	1617
61.1	1652
61.11	1694
61.12	1666
61.13	1648
61.14	1690
61.15	1688
61.16	1678
61.17	1664
61.18	1658
61.19	1673
61.2	1645
61.21	1646
61.22	1671
61.23	1670
61.24	1678
61.25	1698
61.26	1664
61.27	1710
61.28	1671
61.29	1630
61.3	1652
61.31	1662
61.32	1677
61.33	1679
61.34	1677
61.35	1652
61.36	1695
61.37	1684
61.38	1666
61.39	1686
61.4	1684
61.41	1686
61.42	1676
61.43	1669
61.44	1663
61.45	1675
61.46	1668
61.47	1641
61.48	1607
61.49	1630
61.5	1686
61.51	1724
61.52	1694
61.53	1668
61.54	1669
61.55	1685
61.56	1682
61.57	1666
61.58	1677
61.59	1693
61.6	1695
61.61	1627
61.62	1616
61.63	1616
61.64	1674
61.65	1734
61.66	1701
61.67	1687
61.68	1686
61.69	1712
61.7	1708
61.71	1714
61.72	1688
61.73	1671
61.74	1713
61.75	1726
61.76	1695
61.77	1708
61.78	1700
61.79	1731
61.8	1722
61.81	1680
61.82	1708
61.83	1707
61.84	1720
61.85	1711
61.86	1691
61.87	1762
61.88	1729
61.89	1707
61.9	1746
61.91	1772
61.92	1796
61.93	1806
61.94	1806
61.95	1796
61.96	1781
61.97	1803
61.98	1811
61.99	1789
62.0	1814
62.01	1844
62.02	1818
62.03	1815
62.04	1859
62.05	1893
62.06	1897
62.07	1886
62.08	1923
62.09	1974
62.1	1964
62.11	2017
62.12	1993
62.13	2050
62.14	2124
62.15	2156
62.16	2179
62.17	2212
62.18	2210
62.19	2277
62.2	2295
62.21	2310
62.22	2341
62.23	2338
62.24	2342
62.25	2363
62.26	2494
62.27	2474
62.28	2451
62.29	2455
62.3	2399
62.31	2362
62.32	2409
62.33	2446
62.34	2401
62.35	2381
62.36	2383
62.37	2348
62.38	2358
62.39	2348
62.4	2282
62.41	2278
62.42	2227
62.43	2222
62.44	2230
62.45	2238
62.46	2211
62.47	2196
62.48	2083
62.49	2104
62.5	2127
62.51	2046
62.52	2034
62.53	2015
62.54	2000
62.55	1952
62.56	1963
62.57	1923
62.58	1903
62.59	1857
62.6	1832
62.61	1852
62.62	1839
62.63	1851
62.64	1816
62.65	1795
62.66	1727
62.67	1767
62.68	1809
62.69	1800
62.7	1770
62.71	1785
62.72	1788
62.73	1773
62.74	1780
62.75	1722
62.76	1739
62.77	1737
62.78	1719
62.79	1668
62.8	1692
62.81	1715
62.82	1727
62.83	1720
62.84	1701
62.85	1680
62.86	1694
62.87	1690
62.88	1650
62.89	1704
62.9	1691
62.91	1681
62.92	1669
62.93	1685
62.94	1692
62.95	1690
62.96	1660
62.97	1641
62.98	1677
62.99	1707
63.0	1677
63.01	1678
63.02	1702
63.03	1701
63.04	1656
63.05	1692
63.06	1710
63.07	1701
63.08	1703
63.09	1667
63.1	1649
63.11	1637
63.12	1677
63.13	1647
63.14	1644
63.15	1689
63.16	1671
63.17	1651
63.18	1688
63.19	1718
63.2	1708
63.21	1678
63.22	1689
63.23	1691
63.24	1674
63.25	1674
63.26	1671
63.27	1730
63.28	1746
63.29	1773
63.3	1755
63.31	1751
63.32	1730
63.33	1718
63.34	1782
63.35	1796
63.36	1774
63.37	1768
63.38	1779
63.39	1780
63.4	1754
63.41	1791
63.42	1778
63.43	1766
63.44	1798
63.45	1819
63.46	1847
63.47	1850
63.48	1856
63.49	1857
63.5	1872
63.51	1903
63.52	1858
63.53	1932
63.54	2041
63.55	2029
63.56	1973
63.57	2008
63.58	2063
63.59	2079
63.6	2101
63.61	2158
63.62	2238
63.63	2283
63.64	2253
63.65	2310
63.66	2336
63.67	2406
63.68	2506
63.69	2549
63.7	2569
63.71	2609
63.72	2662
63.73	2714
63.74	2728
63.75	2798
63.76	2855
63.77	2946
63.78	2955
63.79	2962
63.8	2972
63.81	2963
63.82	2940
63.83	2888
63.84	2924
63.85	3053
63.86	3072
63.87	3007
63.88	2907
63.89	2887
63.9	2862
63.91	2759
63.92	2828
63.93	2779
63.94	2734
63.95	2719
63.96	2722
63.97	2652
63.98	2689
63.99	2561
64.0	2547
64.01	2472
64.02	2363
64.03	2370
64.04	2320
64.05	2358
64.06	2326
64.07	2221
64.08	2210
64.09	2171
64.1	2178
64.11	2126
64.12	2081
64.13	2049
64.14	2001
64.15	2042
64.16	1965
64.17	1900
64.18	1923
64.19	1946
64.2	1871
64.21	1875
64.22	1850
64.23	1829
64.24	1802
64.25	1840
64.26	1841
64.27	1826
64.28	1830
64.29	1783
64.3	1756
64.31	1751
64.32	1747
64.33	1794
64.34	1778
64.35	1761
64.36	1672
64.37	1722
64.38	1711
64.39	1715
64.4	1691
64.41	1709
64.42	1700
64.43	1713
64.44	1714
64.45	1676
64.46	1684
64.47	1696
64.48	1640
64.49	1670
64.5	1692
64.51	1660
64.52	1685
64.53	1693
64.54	1662
64.55	1695
64.56	1617
64.57	1606
64.58	1692
64.59	1675
64.6	1609
64.61	1630
64.62	1571
64.63	1571
64.64	1606
64.65	1639
64.66	1680
64.67	1646
64.68	1595
64.69	1611
64.7	1661
64.71	1609
64.72	1647
64.73	1674
64.74	1609
64.75	1569
64.76	1594
64.77	1598
64.78	1611
64.79	1526
64.8	1596
64.81	1625
64.82	1608
64.83	1562
64.84	1632
64.85	1638
64.86	1623
64.87	1598
64.88	1575
64.89	1604
64.9	1603
64.91	1598
64.92	1649
64.93	1629
64.94	1569
64.95	1559
64.96	1577
64.97	1611
64.98	1596
64.99	1571
65.0	1642
65.01	1627
65.02	1611
65.03	1634
65.04	1578
65.05	1548
65.06	1614
65.07	1584
65.08	1529
65.09	1560
65.1	1572
65.11	1562
65.12	1563
65.13	1592
65.14	1624
65.15	1561
65.16	1582
65.17	1570
65.18	1565
65.19	1559
65.2	1505
65.21	1566
65.22	1529
65.23	1548
65.24	1602
65.25	1574
65.26	1575
65.27	1626
65.28	1554
65.29	1517
65.3	1587
65.31	1525
65.32	1555
65.33	1577
65.34	1602
65.35	1584
65.36	1552
65.37	1558
65.38	1552
65.39	1590
65.4	1553
65.41	1562
65.42	1523
65.43	1592
65.44	1579
65.45	1580
65.46	1540
65.47	1586
65.48	1526
65.49	1543
65.5	1543
65.51	1532
65.52	1538
65.53	1566
65.54	1587
65.55	1603
65.56	1554
65.57	1518
65.58	1581
65.59	1552
65.6	1554
65.61	1579
65.62	1548
65.63	1529
65.64	1564
65.65	1601
65.66	1575
65.67	1512
65.68	1562
65.69	1568
65.7	1587
65.71	1566
65.72	1569
65.73	1555
65.74	1553
65.75	1568
65.76	1573
65.77	1527
65.78	1556
65.79	1571
65.8	1549
65.81	1543
65.82	1577
65.83	1543
65.84	1604
65.85	1606
65.86	1599
65.87	1600
65.88	1561
65.89	1552
65.9	1558
65.91	1602
65.92	1575
65.93	1588
65.94	1551
65.95	1550
65.96	1566
65.97	1547
65.98	1562
65.99	1567
66.0	1518
66.01	1522
66.02	1578
66.03	1561
66.04	1542
66.05	1565
66.06	1610
66.07	1631
66.08	1559
66.09	1511
66.1	1550
66.11	1556
66.12	1569
66.13	1539
66.14	1531
66.15	1532
66.16	1537
66.17	1552
66.18	1537
66.19	1541
66.2	1539
66.21	1565
66.22	1589
66.23	1586
66.24	1574
66.25	1544
66.26	1579
66.27	1583
66.28	1576
66.29	1539
66.3	1548
66.31	1544
66.32	1541
66.33	1542
66.34	1574
66.35	1545
66.36	1534
66.37	1531
66.38	1553
66.39	1551
66.4	1555
66.41	1614
66.42	1601
66.43	1592
66.44	1611
66.45	1533
66.46	1515
66.47	1554
66.48	1583
66.49	1593
66.5	1546
66.51	1574
66.52	1583
66.53	1577
66.54	1528
66.55	1532
66.56	1523
66.57	1558
66.58	1612
66.59	1628
66.6	1608
66.61	1591
66.62	1565
66.63	1548
66.64	1551
66.65	1605
66.66	1582
66.67	1532
66.68	1542
66.69	1582
66.7	1577
66.71	1593
66.72	1590
66.73	1582
66.74	1576
66.75	1583
66.76	1555
66.77	1609
66.78	1622
66.79	1604
66.8	1574
66.81	1587
66.82	1598
66.83	1592
66.84	1576
66.85	1605
66.86	1620
66.87	1584
66.88	1651
66.89	1607
66.9	1642
66.91	1607
66.92	1596
66.93	1612
66.94	1666
66.95	1638
66.96	1637
66.97	1592
66.98	1615
66.99	1639
67.0	1650
67.01	1641
67.02	1649
67.03	1651
67.04	1606
67.05	1558
67.06	1559
67.07	1621
67.08	1619
67.09	1563
67.1	1589
67.11	1598
67.12	1570
67.13	1575
67.14	1575
67.15	1613
67.16	1600
67.17	1615
67.18	1598
67.19	1600
67.2	1578
67.21	1606
67.22	1558
67.23	1536
67.24	1541
67.25	1568
67.26	1579
67.27	1572
67.28	1542
67.29	1555
67.3	1546
67.31	1579
67.32	1530
67.33	1594
67.34	1556
67.35	1502
67.36	1474
67.37	1552
67.38	1555
67.39	1480
67.4	1518
67.41	1577
67.42	1525
67.43	1544
67.44	1549
67.45	1538
67.46	1562
67.47	1521
67.48	1527
67.49	1537
67.5	1556
67.51	1547
67.52	1568
67.53	1565
67.54	1544
67.55	1551
67.56	1549
67.57	1495
67.58	1528
67.59	1569
67.6	1558
67.61	1586
67.62	1566
67.63	1538
67.64	1529
67.65	1527
67.66	1546
67.67	1526
67.68	1494
67.69	1499
67.7	1558
67.71	1574
67.72	1540
67.73	1509
67.74	1524
67.75	1562
67.76	1520
67.77	1543
67.78	1532
67.79	1519
67.8	1550
67.81	1548
67.82	1503
67.83	1479
67.84	1490
67.85	1522
67.86	1561
67.87	1565
67.88	1551
67.89	1511
67.9	1534
67.91	1592
67.92	1536
67.93	1496
67.94	1535
67.95	1561
67.96	1525
67.97	1472
67.98	1515
67.99	1481
68.0	1490
68.01	1516
68.02	1527
68.03	1526
68.04	1555
68.05	1528
68.06	1546
68.07	1517
68.08	1550
68.09	1510
68.1	1518
68.11	1549
68.12	1567
68.13	1556
68.14	1556
68.15	1561
68.16	1530
68.17	1539
68.18	1558
68.19	1621
68.2	1607
68.21	1537
68.22	1584
68.23	1563
68.24	1591
68.25	1575
68.26	1592
68.27	1555
68.28	1571
68.29	1550
68.3	1512
68.31	1543
68.32	1545
68.33	1560
68.34	1565
68.35	1561
68.36	1591
68.37	1621
68.38	1601
68.39	1607
68.4	1586
68.41	1600
68.42	1573
68.43	1592
68.44	1682
68.45	1601
68.46	1611
68.47	1677
68.48	1642
68.49	1596
68.5	1608
68.51	1653
68.52	1663
68.53	1633
68.54	1632
68.55	1649
68.56	1701
68.57	1715
68.58	1660
68.59	1667
68.6	1682
68.61	1667
68.62	1655
68.63	1665
68.64	1674
68.65	1629
68.66	1586
68.67	1674
68.68	1662
68.69	1660
68.7	1642
68.71	1627
68.72	1628
68.73	1655
68.74	1628
68.75	1632
68.76	1667
68.77	1643
68.78	1629
68.79	1620
68.8	1605
68.81	1623
68.82	1639
68.83	1589
68.84	1544
68.85	1559
68.86	1591
68.87	1535
68.88	1547
68.89	1542
68.9	1562
68.91	1571
68.92	1536
68.93	1580
68.94	1552
68.95	1541
68.96	1547
68.97	1555
68.98	1578
68.99	1540
69.0	1530
69.01	1531
69.02	1506
69.03	1507
69.04	1542
69.05	1488
69.06	1506
69.07	1544
69.08	1542
69.09	1533
69.1	1567
69.11	1511
69.12	1531
69.13	1550
69.14	1535
69.15	1547
69.16	1571
69.17	1525
69.18	1520
69.19	1532
69.2	1530
69.21	1509
69.22	1474
69.23	1480
69.24	1510
69.25	1573
69.26	1544
69.27	1535
69.28	1525
69.29	1506
69.3	1468
69.31	1469
69.32	1442
69.33	1468
69.34	1498
69.35	1518
69.36	1554
69.37	1538
69.38	1494
69.39	1498
69.4	1534
69.41	1509
69.42	1516
69.43	1549
69.44	1515
69.45	1468
69.46	1525
69.47	1527
69.48	1557
69.49	1547
69.5	1529
69.51	1473
69.52	1507
69.53	1522
69.54	1459
69.55	1517
69.56	1557
69.57	1519
69.58	1497
69.59	1527
69.6	1508
69.61	1443
69.62	1483
69.63	1529
69.64	1527
69.65	1536
69.66	1516
69.67	1510
69.68	1518
69.69	1482
69.7	1511
69.71	1534
69.72	1504
69.73	1488
69.74	1494
69.75	1515
69.76	1551
69.77	1507
69.78	1513
69.79	1514
69.8	1519
69.81	1520
69.82	1472
69.83	1462
69.84	1464
69.85	1502
69.86	1491
69.87	1531
69.88	1559
69.89	1541
69.9	1542
69.91	1505
69.92	1504
69.93	1461
69.94	1452
69.95	1483
69.96	1489
69.97	1495
69.98	1504
69.99	1485
70.0	1486
70.01	1493
70.02	1492
70.03	1470
70.04	1489
70.05	1527
70.06	1523
70.07	1469
70.08	1477
70.09	1513
70.1	1487
70.11	1496
70.12	1516
70.13	1497
70.14	1470
70.15	1493
70.16	1502
70.17	1497
70.18	1467
70.19	1504
70.2	1476
70.21	1500
70.22	1491
70.23	1452
70.24	1477
70.25	1472
70.26	1481
70.27	1506
70.28	1490
70.29	1432
70.3	1444
70.31	1484
70.32	1527
70.33	1533
70.34	1475
70.35	1508
70.36	1536
70.37	1553
70.38	1530
70.39	1518
70.4	1499
70.41	1498
70.42	1495
70.43	1461
70.44	1498
70.45	1545
70.46	1499
70.47	1458
70.48	1471
70.49	1467
70.5	1497
70.51	1543
70.52	1511
70.53	1497
70.54	1553
70.55	1526
70.56	1480
70.57	1512
70.58	1500
70.59	1472
70.6	1458
70.61	1461
70.62	1461
70.63	1507
70.64	1484
70.65	1484
70.66	1506
70.67	1499
70.68	1496
70.69	1492
70.7	1474
70.71	1501
70.72	1520
70.73	1478
70.74	1474
70.75	1492
70.76	1501
70.77	1458
70.78	1512
70.79	1490
70.8	1453
70.81	1473
70.82	1457
70.83	1475
70.84	1481
70.85	1489
70.86	1488
70.87	1453
70.88	1449
70.89	1511
70.9	1467
70.91	1470
70.92	1499
70.93	1472
70.94	1498
70.95	1470
70.96	1462
70.97	1489
70.98	1507
70.99	1500
71.0	1515
71.01	1517
71.02	1483
71.03	1467
71.04	1435
71.05	1500
71.06	1500
71.07	1489
71.08	1497
71.09	1519
71.1	1501
71.11	1482
71.12	1494
71.13	1446
71.14	1474
71.15	1461
71.16	1451
71.17	1457
71.18	1431
71.19	1441
71.2	1444
71.21	1452
71.22	1484
71.23	1481
71.24	1502
71.25	1489
71.26	1504
71.27	1510
71.28	1462
71.29	1491
71.3	1466
71.31	1487
71.32	1491
71.33	1490
71.34	1496
71.35	1452
71.36	1481
71.37	1506
71.38	1502
71.39	1529
71.4	1502
71.41	1528
71.42	1529
71.43	1547
71.44	1558
71.45	1564
71.46	1494
71.47	1564
71.48	1554
71.49	1519
71.5	1547
71.51	1591
71.52	1568
71.53	1493
71.54	1528
71.55	1584
71.56	1630
71.57	1546
71.58	1568
71.59	1593
71.6	1575
71.61	1567
71.62	1561
71.63	1601
71.64	1604
71.65	1628
71.66	1597
71.67	1560
71.68	1590
71.69	1610
71.7	1619
71.71	1592
71.72	1536
71.73	1543
71.74	1555
71.75	1515
71.76	1536
71.77	1600
71.78	1578
71.79	1542
71.8	1585
71.81	1555
71.82	1549
71.83	1525
71.84	1597
71.85	1599
71.86	1573
71.87	1535
71.88	1542
71.89	1562
71.9	1518
71.91	1509
71.92	1524
71.93	1537
71.94	1519
71.95	1519
71.96	1516
71.97	1530
71.98	1511
71.99	1511
72.0	1551
72.01	1523
72.02	1529
72.03	1521
72.04	1514
72.05	1444
72.06	1467
72.07	1467
72.08	1537
72.09	1548
72.1	1527
72.11	1475
72.12	1486
72.13	1542
72.14	1541
72.15	1480
72.16	1469
72.17	1454
72.18	1491
72.19	1452
72.2	1508
72.21	1506
72.22	1511
72.23	1512
72.24	1486
72.25	1478
72.26	1471
72.27	1477
72.28	1430
72.29	1484
72.3	1541
72.31	1499
72.32	1478
72.33	1516
72.34	1479
72.35	1461
72.36	1473
72.37	1479
72.38	1465
72.39	1491
72.4	1464
72.41	1469
72.42	1457
72.43	1411
72.44	1498
72.45	1512
72.46	1431
72.47	1475
72.48	1471
72.49	1452
72.5	1442
72.51	1468
72.52	1477
72.53	1485
72.54	1499
72.55	1483
72.56	1452
72.57	1454
72.58	1460
72.59	1456
72.6	1444
72.61	1496
72.62	1500
72.63	1456
72.64	1500
72.65	1478
72.66	1434
72.67	1461
72.68	1480
72.69	1454
72.7	1441
72.71	1480
72.72	1434
72.73	1461
72.74	1464
72.75	1460
72.76	1454
72.77	1442
72.78	1504
72.79	1477
72.8	1436
72.81	1427
72.82	1418
72.83	1469
72.84	1456
72.85	1454
72.86	1473
72.87	1445
72.88	1405
72.89	1433
72.9	1457
72.91	1437
72.92	1448
72.93	1477
72.94	1490
72.95	1449
72.96	1484
72.97	1476
72.98	1446
72.99	1455
73.0	1422
73.01	1427
73.02	1489
73.03	1463
73.04	1497
73.05	1477
73.06	1450
73.07	1477
73.08	1458
73.09	1430
73.1	1471
73.11	1453
73.12	1442
73.13	1442
73.14	1444
73.15	1454
73.16	1497
73.17	1535
73.18	1523
73.19	1468
73.2	1425
73.21	1454
73.22	1451
73.23	1422
73.24	1501
73.25	1499
73.26	1453
73.27	1476
73.28	1451
73.29	1440
73.3	1445
73.31	1452
73.32	1435
73.33	1526
73.34	1525
73.35	1499
73.36	1514
73.37	1493
73.38	1451
73.39	1455
73.4	1462
73.41	1461
73.42	1451
73.43	1437
73.44	1433
73.45	1464
73.46	1452
73.47	1450
73.48	1482
73.49	1489
73.5	1463
73.51	1440
73.52	1439
73.53	1438
73.54	1480
73.55	1457
73.56	1401
73.57	1410
73.58	1444
73.59	1478
73.6	1473
73.61	1449
73.62	1445
73.63	1458
73.64	1431
73.65	1445
73.66	1487
73.67	1488
73.68	1488
73.69	1478
73.7	1448
73.71	1455
73.72	1446
73.73	1428
73.74	1428
73.75	1407
73.76	1457
73.77	1447
73.78	1440
73.79	1460
73.8	1497
73.81	1449
73.82	1396
73.83	1374
73.84	1433
73.85	1445
73.86	1429
73.87	1446
73.88	1470
73.89	1474
73.9	1468
73.91	1494
73.92	1496
73.93	1507
73.94	1458
73.95	1400
73.96	1417
73.97	1442
73.98	1467
73.99	1484
74.0	1412
74.01	1428
74.02	1445
74.03	1474
74.04	1435
74.05	1440
74.06	1453
74.07	1436
74.08	1440
74.09	1435
74.1	1441
74.11	1433
74.12	1421
74.13	1451
74.14	1380
74.15	1419
74.16	1418
74.17	1428
74.18	1437
74.19	1472
74.2	1500
74.21	1467
74.22	1475
74.23	1471
74.24	1430
74.25	1452
74.26	1404
74.27	1386
74.28	1409
74.29	1456
74.3	1460
74.31	1442
74.32	1444
74.33	1460
74.34	1444
74.35	1458
74.36	1499
74.37	1437
74.38	1407
74.39	1435
74.4	1516
74.41	1450
74.42	1434
74.43	1475
74.44	1458
74.45	1450
74.46	1407
74.47	1410
74.48	1480
74.49	1512
74.5	1421
74.51	1433
74.52	1471
74.53	1507
74.54	1470
74.55	1438
74.56	1458
74.57	1452
74.58	1412
74.59	1407
74.6	1458
74.61	1476
74.62	1458
74.63	1419
74.64	1420
74.65	1433
74.66	1423
74.67	1425
74.68	1471
74.69	1482
74.7	1453
74.71	1424
74.72	1482
74.73	1459
74.74	1463
74.75	1485
74.76	1440
74.77	1431
74.78	1424
74.79	1433
74.8	1420
74.81	1478
74.82	1446
74.83	1426
74.84	1409
74.85	1393
74.86	1444
74.87	1454
74.88	1459
74.89	1462
74.9	1439
74.91	1473
74.92	1502
74.93	1451
74.94	1419
74.95	1459
74.96	1434
74.97	1476
74.98	1486
74.99	1476
75.0	1504
75.01	1497
75.02	1490
75.03	1450
75.04	1491
75.05	1491
75.06	1416
75.07	1432
75.08	1420
75.09	1401
75.1	1439
75.11	1482
75.12	1481
75.13	1431
75.14	1408
75.15	1441
75.16	1441
75.17	1443
75.18	1450
75.19	1457
75.2	1454
75.21	1451
75.22	1434
75.23	1450
75.24	1463
75.25	1408
75.26	1420
75.27	1433
75.28	1444
75.29	1445
75.3	1461
75.31	1473
75.32	1425
75.33	1438
75.34	1462
75.35	1460
75.36	1476
75.37	1469
75.38	1433
75.39	1406
75.4	1371
75.41	1425
75.42	1426
75.43	1466
75.44	1468
75.45	1455
75.46	1471
75.47	1473
75.48	1490
75.49	1501
75.5	1531
75.51	1494
75.52	1448
75.53	1462
75.54	1488
75.55	1470
75.56	1480
75.57	1493
75.58	1488
75.59	1513
75.6	1486
75.61	1446
75.62	1444
75.63	1503
75.64	1446
75.65	1474
75.66	1447
75.67	1468
75.68	1513
75.69	1477
75.7	1475
75.71	1494
75.72	1510
75.73	1540
75.74	1547
75.75	1555
75.76	1519
75.77	1504
75.78	1530
75.79	1459
75.8	1476
75.81	1518
75.82	1564
75.83	1579
75.84	1559
75.85	1574
75.86	1579
75.87	1604
75.88	1593
75.89	1613
75.9	1639
75.91	1644
75.92	1694
75.93	1697
75.94	1679
75.95	1674
75.96	1648
75.97	1656
75.98	1652
75.99	1670
76.0	1702
76.01	1756
76.02	1776
76.03	1811
76.04	1728
76.05	1695
76.06	1650
76.07	1737
76.08	1736
76.09	1654
76.1	1637
76.11	1637
76.12	1671
76.13	1660
76.14	1652
76.15	1671
76.16	1644
76.17	1635
76.18	1661
76.19	1641
76.2	1608
76.21	1628
76.22	1623
76.23	1631
76.24	1592
76.25	1591
76.26	1612
76.27	1621
76.28	1527
76.29	1542
76.3	1541
76.31	1498
76.32	1519
76.33	1571
76.34	1584
76.35	1569
76.36	1510
76.37	1443
76.38	1471
76.39	1533
76.4	1566
76.41	1505
76.42	1489
76.43	1514
76.44	1510
76.45	1509
76.46	1469
76.47	1481
76.48	1456
76.49	1446
76.5	1470
76.51	1440
76.52	1436
76.53	1466
76.54	1482
76.55	1470
76.56	1488
76.57	1488
76.58	1469
76.59	1447
76.6	1462
76.61	1452
76.62	1468
76.63	1479
76.64	1440
76.65	1416
76.66	1422
76.67	1510
76.68	1502
76.69	1450
76.7	1458
76.71	1457
76.72	1470
76.73	1446
76.74	1446
76.75	1448
76.76	1466
76.77	1462
76.78	1444
76.79	1407
76.8	1429
76.81	1458
76.82	1419
76.83	1448
76.84	1434
76.85	1423
76.86	1452
76.87	1451
76.88	1436
76.89	1470
76.9	1422
76.91	1409
76.92	1425
76.93	1467
76.94	1471
76.95	1464
76.96	1434
76.97	1441
76.98	1480
76.99	1466
77.0	1436
77.01	1459
77.02	1467
77.03	1433
77.04	1428
77.05	1413
77.06	1441
77.07	1432
77.08	1466
77.09	1428
77.1	1423
77.11	1383
77.12	1426
77.13	1391
77.14	1415
77.15	1406
77.16	1434
77.17	1413
77.18	1439
77.19	1448
77.2	1404
77.21	1451
77.22	1437
77.23	1384
77.24	1412
77.25	1425
77.26	1400
77.27	1381
77.28	1366
77.29	1393
77.3	1446
77.31	1439
77.32	1360
77.33	1396
77.34	1459
77.35	1482
77.36	1517
77.37	1493
77.38	1465
77.39	1470
77.4	1447
77.41	1428
77.42	1409
77.43	1445
77.44	1464
77.45	1457
77.46	1477
77.47	1483
77.48	1456
77.49	1432
77.5	1444
77.51	1465
77.52	1417
77.53	1411
77.54	1421
77.55	1444
77.56	1479
77.57	1449
77.58	1422
77.59	1414
77.6	1457
77.61	1478
77.62	1476
77.63	1462
77.64	1444
77.65	1449
77.66	1462
77.67	1448
77.68	1430
77.69	1399
77.7	1414
77.71	1437
77.72	1356
77.73	1382
77.74	1406
77.75	1465
77.76	1450
77.77	1483
77.78	1470
77.79	1401
77.8	1430
77.81	1440
77.82	1431
77.83	1430
77.84	1387
77.85	1409
77.86	1440
77.87	1462
77.88	1490
77.89	1503
77.9	1422
77.91	1411
77.92	1387
77.93	1443
77.94	1466
77.95	1439
77.96	1401
77.97	1425
77.98	1515
77.99	1467
78.0	1431
78.01	1433
78.02	1475
78.03	1463
78.04	1433
78.05	1403
78.06	1428
78.07	1490
78.08	1488
78.09	1477
78.1	1469
78.11	1465
78.12	1449
78.13	1519
78.14	1484
78.15	1484
78.16	1486
78.17	1495
78.18	1473
78.19	1483
78.2	1509
78.21	1557
78.22	1531
78.23	1508
78.24	1513
78.25	1518
78.26	1509
78.27	1508
78.28	1474
78.29	1514
78.3	1585
78.31	1593
78.32	1556
78.33	1508
78.34	1492
78.35	1511
78.36	1537
78.37	1524
78.38	1585
78.39	1602
78.4	1572
78.41	1609
78.42	1568
78.43	1570
78.44	1577
78.45	1607
78.46	1603
78.47	1596
78.48	1543
78.49	1530
78.5	1527
78.51	1525
78.52	1560
78.53	1521
78.54	1544
78.55	1560
78.56	1564
78.57	1572
78.58	1634
78.59	1570
78.6	1546
78.61	1559
78.62	1498
78.63	1491
78.64	1528
78.65	1588
78.66	1539
78.67	1539
78.68	1524
78.69	1518
78.7	1495
78.71	1502
78.72	1511
78.73	1500
78.74	1546
78.75	1526
78.76	1509
78.77	1473
78.78	1454
78.79	1486
78.8	1477
78.81	1473
78.82	1492
78.83	1468
78.84	1529
78.85	1468
78.86	1441
78.87	1456
78.88	1490
78.89	1483
78.9	1458
78.91	1462
78.92	1445
78.93	1413
78.94	1413
78.95	1399
78.96	1459
78.97	1443
78.98	1441
78.99	1446
79.0	1448
79.01	1426
79.02	1386
79.03	1410
79.04	1462
79.05	1431
79.06	1418
79.07	1451
79.08	1476
79.09	1461
79.1	1475
79.11	1468
79.12	1426
79.13	1424
79.14	1440
79.15	1449
79.16	1414
79.17	1361
79.18	1381
79.19	1402
79.2	1391
79.21	1416
79.22	1413
79.23	1470
79.24	1462
79.25	1461
79.26	1462
79.27	1424
79.28	1395
79.29	1428
79.3	1447
79.31	1433
79.32	1437
79.33	1459
79.34	1436
79.35	1425
79.36	1467
79.37	1436
79.38	1421
79.39	1406
79.4	1449
79.41	1463
79.42	1423
79.43	1444
79.44	1394
79.45	1425
79.46	1433
79.47	1428
79.48	1454
79.49	1472
79.5	1444
79.51	1417
79.52	1418
79.53	1408
79.54	1408
79.55	1440
79.56	1456
79.57	1464
79.58	1475
79.59	1414
79.6	1428
79.61	1418
79.62	1431
79.63	1437
79.64	1455
79.65	1449
79.66	1383
79.67	1391
79.68	1431
79.69	1392
79.7	1455
79.71	1455
79.72	1451
79.73	1401
79.74	1407
79.75	1427
79.76	1396
79.77	1436
79.78	1424
79.79	1389
79.8	1392
79.81	1422
79.82	1436
79.83	1413
79.84	1406
79.85	1395
79.86	1415
79.87	1466
79.88	1468
79.89	1441
79.9	1457
79.91	1469
79.92	1435
79.93	1399
79.94	1434
79.95	1448
79.96	1407
79.97	1430
79.98	1443
79.99	1440
80.0	1449
80.01	1427
80.02	1443
80.03	1481
80.04	1494
80.05	1506
80.06	1535
80.07	1504
80.08	1497
80.09	1494
80.1	1508
80.11	1515
80.12	1494
80.13	1525
80.14	1513
80.15	1499
80.16	1492
80.17	1553
80.18	1549
80.19	1536
80.2	1503
80.21	1513
80.22	1554
80.23	1566
80.24	1585
80.25	1616
80.26	1614
80.27	1641
80.28	1660
80.29	1640
80.3	1637
80.31	1672
80.32	1689
80.33	1687
80.34	1690
80.35	1723
80.36	1761
80.37	1775
80.38	1805
80.39	1815
80.4	1829
80.41	1840
80.42	1828
80.43	1816
80.44	1876
80.45	1845
80.46	1835
80.47	1896
80.48	1810
80.49	1875
80.5	1837
80.51	1819
80.52	1876
80.53	1857
80.54	1892
80.55	1900
80.56	1834
80.57	1787
80.58	1786
80.59	1791
80.6	1797
80.61	1795
80.62	1767
80.63	1772
80.64	1826
80.65	1767
80.66	1749
80.67	1725
80.68	1743
80.69	1766
80.7	1740
80.71	1681
80.72	1629
80.73	1673
80.74	1672
80.75	1658
80.76	1676
80.77	1604
80.78	1604
80.79	1621
80.8	1584
80.81	1569
80.82	1593
80.83	1571
80.84	1530
80.85	1517
80.86	1540
80.87	1512
80.88	1516
80.89	1505
80.9	1524
80.91	1531
80.92	1518
80.93	1452
80.94	1464
80.95	1496
80.96	1534
80.97	1484
80.98	1484
80.99	1489
81.0	1495
81.01	1480
81.02	1457
81.03	1484
81.04	1506
81.05	1499
81.06	1478
81.07	1463
81.08	1464
81.09	1478
81.1	1509
81.11	1478
81.12	1414
81.13	1382
81.14	1431
81.15	1432
81.16	1456
81.17	1429
81.18	1416
81.19	1416
81.2	1459
81.21	1487
81.22	1489
81.23	1475
81.24	1438
81.25	1429
81.26	1437
81.27	1438
81.28	1405
81.29	1444
81.3	1433
81.31	1457
81.32	1438
81.33	1469
81.34	1447
81.35	1424
81.36	1490
81.37	1454
81.38	1451
81.39	1447
81.4	1462
81.41	1461
81.42	1415
81.43	1409
81.44	1415
81.45	1430
81.46	1420
81.47	1431
81.48	1438
81.49	1419
81.5	1383
81.51	1408
81.52	1484
81.53	1470
81.54	1420
81.55	1413
81.56	1429
81.57	1401
81.58	1421
81.59	1450
81.6	1448
81.61	1454
81.62	1481
81.63	1427
81.64	1406
81.65	1415
81.66	1402
81.67	1431
81.68	1427
81.69	1404
81.7	1395
81.71	1348
81.72	1390
81.73	1362
81.74	1412
81.75	1415
81.76	1373
81.77	1378
81.78	1394
81.79	1398
81.8	1431
81.81	1381
81.82	1408
81.83	1402
81.84	1396
81.85	1359
81.86	1390
81.87	1393
81.88	1365
81.89	1363
81.9	1338
81.91	1348
81.92	1360
81.93	1357
81.94	1380
81.95	1398
81.96	1391
81.97	1368
81.98	1379
81.99	1405
82.0	1371
82.01	1370
82.02	1354
82.03	1357
82.04	1368
82.05	1365
82.06	1346
82.07	1362
82.08	1398
82.09	1369
82.1	1388
82.11	1398
82.12	1335
82.13	1331
82.14	1323
82.15	1314
82.16	1373
82.17	1354
82.18	1386
82.19	1380
82.2	1413
82.21	1378
82.22	1366
82.23	1358
82.24	1371
82.25	1398
82.26	1382
82.27	1374
82.28	1358
82.29	1369
82.3	1395
82.31	1361
82.32	1341
82.33	1353
82.34	1346
82.35	1334
82.36	1349
82.37	1357
82.38	1350
82.39	1369
82.4	1406
82.41	1446
82.42	1393
82.43	1369
82.44	1364
82.45	1333
82.46	1352
82.47	1353
82.48	1362
82.49	1356
82.5	1356
82.51	1369
82.52	1420
82.53	1389
82.54	1356
82.55	1366
82.56	1350
82.57	1331
82.58	1326
82.59	1313
82.6	1336
82.61	1358
82.62	1377
82.63	1348
82.64	1359
82.65	1422
82.66	1353
82.67	1340
82.68	1343
82.69	1360
82.7	1331
82.71	1331
82.72	1348
82.73	1340
82.74	1351
82.75	1364
82.76	1382
82.77	1372
82.78	1378
82.79	1382
82.8	1376
82.81	1376
82.82	1372
82.83	1344
82.84	1368
82.85	1357
82.86	1383
82.87	1378
82.88	1358
82.89	1356
82.9	1359
82.91	1350
82.92	1327
82.93	1326
82.94	1364
82.95	1404
82.96	1374
82.97	1357
82.98	1406
82.99	1388
83.0	1397
83.01	1406
83.02	1343
83.03	1337
83.04	1375
83.05	1396
83.06	1355
83.07	1372
83.08	1358
83.09	1318
83.1	1356
83.11	1399
83.12	1418
83.13	1367
83.14	1367
83.15	1365
83.16	1315
83.17	1317
83.18	1364
83.19	1357
83.2	1359
83.21	1413
83.22	1441
83.23	1412
83.24	1377
83.25	1379
83.26	1404
83.27	1383
83.28	1323
83.29	1334
83.3	1364
83.31	1356
83.32	1367
83.33	1377
83.34	1330
83.35	1359
83.36	1373
83.37	1366
83.38	1366
83.39	1375
83.4	1352
83.41	1327
83.42	1365
83.43	1364
83.44	1348
83.45	1308
83.46	1356
83.47	1383
83.48	1372
83.49	1360
83.5	1360
83.51	1354
83.52	1356
83.53	1403
83.54	1385
83.55	1350
83.56	1380
83.57	1381
83.58	1352
83.59	1367
83.6	1352
83.61	1327
83.62	1327
83.63	1341
83.64	1336
83.65	1339
83.66	1369
83.67	1376
83.68	1395
83.69	1397
83.7	1376
83.71	1369
83.72	1379
83.73	1377
83.74	1361
83.75	1378
83.76	1386
83.77	1374
83.78	1353
83.79	1404
83.8	1417
83.81	1364
83.82	1367
83.83	1404
83.84	1404
83.85	1401
83.86	1391
83.87	1392
83.88	1396
83.89	1437
83.9	1425
83.91	1378
83.92	1380
83.93	1378
83.94	1410
83.95	1419
83.96	1443
83.97	1408
83.98	1413
83.99	1466
84.0	1452
84.01	1432
84.02	1441
84.03	1483
84.04	1449
84.05	1442
84.06	1474
84.07	1522
84.08	1502
84.09	1514
84.1	1525
84.11	1495
84.12	1526
84.13	1532
84.14	1576
84.15	1597
84.16	1561
84.17	1593
84.18	1572
84.19	1544
84.2	1570
84.21	1609
84.22	1610
84.23	1613
84.24	1572
84.25	1575
84.26	1576
84.27	1554
84.28	1578
84.29	1591
84.3	1580
84.31	1525
84.32	1497
84.33	1531
84.34	1547
84.35	1506
84.36	1520
84.37	1532
84.38	1532
84.39	1544
84.4	1527
84.41	1527
84.42	1567
84.43	1560
84.44	1548
84.45	1561
84.46	1541
84.47	1492
84.48	1493
84.49	1525
84.5	1516
84.51	1508
84.52	1504
84.53	1475
84.54	1434
84.55	1445
84.56	1439
84.57	1452
84.58	1447
84.59	1423
84.6	1416
84.61	1415
84.62	1427
84.63	1428
84.64	1444
84.65	1414
84.66	1417
84.67	1425
84.68	1414
84.69	1407
84.7	1452
84.71	1424
84.72	1427
84.73	1381
84.74	1386
84.75	1388
84.76	1376
84.77	1379
84.78	1389
84.79	1354
84.8	1371
84.81	1365
84.82	1364
84.83	1359
84.84	1361
84.85	1377
84.86	1374
84.87	1362
84.88	1395
84.89	1357
84.9	1383
84.91	1390
84.92	1350
84.93	1337
84.94	1341
84.95	1365
84.96	1366
84.97	1384
84.98	1344
84.99	1356
85.0	1325
85.01	1326
85.02	1368
85.03	1401
85.04	1380
85.05	1383
85.06	1362
85.07	1354
85.08	1329
85.09	1325
85.1	1355
85.11	1388
85.12	1339
85.13	1323
85.14	1343
85.15	1367
85.16	1333
85.17	1365
85.18	1344
85.19	1328
85.2	1322
85.21	1337
85.22	1374
85.23	1364
85.24	1335
85.25	1322
85.26	1298
85.27	1309
85.28	1351
85.29	1349
85.3	1355
85.31	1346
85.32	1348
85.33	1328
85.34	1353
85.35	1344
85.36	1349
85.37	1339
85.38	1368
85.39	1371
85.4	1372
85.41	1352
85.42	1349
85.43	1363
85.44	1345
85.45	1356
85.46	1376
85.47	1353
85.48	1342
85.49	1360
85.5	1378
85.51	1363
85.52	1367
85.53	1417
85.54	1434
85.55	1381
85.56	1397
85.57	1387
85.58	1354
85.59	1378
85.6	1352
85.61	1363
85.62	1397
85.63	1426
85.64	1384
85.65	1354
85.66	1334
85.67	1367
85.68	1387
85.69	1381
85.7	1369
85.71	1397
85.72	1405
85.73	1396
85.74	1378
85.75	1383
85.76	1387
85.77	1382
85.78	1395
85.79	1376
85.8	1392
85.81	1426
85.82	1407
85.83	1429
85.84	1400
85.85	1418
85.86	1441
85.87	1447
85.88	1413
85.89	1391
85.9	1380
85.91	1421
85.92	1473
85.93	1465
85.94	1453
85.95	1490
85.96	1468
85.97	1451
85.98	1485
85.99	1503
86.0	1507
86.01	1518
86.02	1474
86.03	1464
86.04	1500
86.05	1565
86.06	1556
86.07	1576
86.08	1603
86.09	1584
86.1	1589
86.11	1623
86.12	1640
86.13	1608
86.14	1607
86.15	1602
86.16	1615
86.17	1653
86.18	1669
86.19	1626
86.2	1592
86.21	1590
86.22	1651
86.23	1686
86.24	1647
86.25	1660
86.26	1599
86.27	1598
86.28	1639
86.29	1658
86.3	1645
86.31	1637
86.32	1635
86.33	1650
86.34	1644
86.35	1639
86.36	1618
86.37	1596
86.38	1561
86.39	1584
86.4	1569
86.41	1550
86.42	1578
86.43	1527
86.44	1534
86.45	1573
86.46	1591
86.47	1577
86.48	1540
86.49	1548
86.5	1549
86.51	1525
86.52	1541
86.53	1538
86.54	1519
86.55	1514
86.56	1541
86.57	1519
86.58	1514
86.59	1480
86.6	1475
86.61	1482
86.62	1479
86.63	1476
86.64	1441
86.65	1424
86.66	1418
86.67	1421
86.68	1451
86.69	1451
86.7	1414
86.71	1458
86.72	1502
86.73	1456
86.74	1386
86.75	1347
86.76	1372
86.77	1398
86.78	1402
86.79	1392
86.8	1411
86.81	1453
86.82	1411
86.83	1386
86.84	1396
86.85	1378
86.86	1376
86.87	1374
86.88	1369
86.89	1373
86.9	1345
86.91	1351
86.92	1383
86.93	1381
86.94	1374
86.95	1382
86.96	1392
86.97	1392
86.98	1395
86.99	1402
87.0	1381
87.01	1387
87.02	1419
87.03	1429
87.04	1399
87.05	1410
87.06	1365
87.07	1367
87.08	1385
87.09	1375
87.1	1329
87.11	1394
87.12	1454
87.13	1450
87.14	1433
87.15	1404
87.16	1398
87.17	1414
87.18	1376
87.19	1388
87.2	1383
87.21	1346
87.22	1355
87.23	1420
87.24	1438
87.25	1377
87.26	1413
87.27	1450
87.28	1449
87.29	1446
87.3	1469
87.31	1465
87.32	1440
87.33	1474
87.34	1505
87.35	1484
87.36	1495
87.37	1517
87.38	1514
87.39	1515
87.4	1549
87.41	1579
87.42	1567
87.43	1549
87.44	1562
87.45	1555
87.46	1539
87.47	1575
87.48	1623
87.49	1595
87.5	1607
87.51	1652
87.52	1656
87.53	1659
87.54	1636
87.55	1614
87.56	1656
87.57	1693
87.58	1620
87.59	1582
87.6	1633
87.61	1679
87.62	1675
87.63	1664
87.64	1700
87.65	1700
87.66	1643
87.67	1586
87.68	1557
87.69	1554
87.7	1604
87.71	1622
87.72	1693
87.73	1682
87.74	1638
87.75	1625
87.76	1582
87.77	1584
87.78	1566
87.79	1551
87.8	1588
87.81	1606
87.82	1552
87.83	1537
87.84	1564
87.85	1561
87.86	1590
87.87	1556
87.88	1537
87.89	1540
87.9	1553
87.91	1564
87.92	1543
87.93	1555
87.94	1532
87.95	1461
87.96	1478
87.97	1510
87.98	1537
87.99	1509
88.0	1442
88.01	1438
88.02	1455
88.03	1445
88.04	1440
88.05	1428
88.06	1421
88.07	1431
88.08	1438
88.09	1400
88.1	1370
88.11	1357
88.12	1366
88.13	1352
88.14	1374
88.15	1389
88.16	1399
88.17	1398
88.18	1384
88.19	1376
88.2	1345
88.21	1339
88.22	1370
88.23	1399
88.24	1396
88.25	1386
88.26	1377
88.27	1388
88.28	1393
88.29	1410
88.3	1401
88.31	1382
88.32	1310
88.33	1301
88.34	1319
88.35	1325
88.36	1339
88.37	1379
88.38	1367
88.39	1356
88.4	1359
88.41	1336
88.42	1335
88.43	1362
88.44	1346
88.45	1318
88.46	1338
88.47	1331
88.48	1328
88.49	1355
88.5	1371
88.51	1361
88.52	1350
88.53	1340
88.54	1326
88.55	1326
88.56	1313
88.57	1331
88.58	1333
88.59	1332
88.6	1368
88.61	1346
88.62	1344
88.63	1332
88.64	1307
88.65	1334
88.66	1403
88.67	1392
88.68	1332
88.69	1345
88.7	1387
88.71	1356
88.72	1335
88.73	1319
88.74	1318
88.75	1343
88.76	1382
88.77	1382
88.78	1329
88.79	1310
88.8	1323
88.81	1320
88.82	1316
88.83	1343
88.84	1345
88.85	1336
88.86	1316
88.87	1288
88.88	1307
88.89	1337
88.9	1350
88.91	1336
88.92	1333
88.93	1331
88.94	1316
88.95	1300
88.96	1319
88.97	1352
88.98	1385
88.99	1378
89.0	1327
89.01	1310
89.02	1327
89.03	1366
89.04	1361
89.05	1353
89.06	1338
89.07	1337
89.08	1326
89.09	1305
89.1	1323
89.11	1330
89.12	1377
89.13	1391
89.14	1356
89.15	1315
89.16	1294
89.17	1275
89.18	1281
89.19	1317
89.2	1330
89.21	1311
89.22	1308
89.23	1342
89.24	1340
89.25	1323
89.26	1307
89.27	1335
89.28	1374
89.29	1364
89.3	1348
89.31	1345
89.32	1338
89.33	1328
89.34	1330
89.35	1346
89.36	1356
89.37	1353
89.38	1340
89.39	1318
89.4	1295
89.41	1332
89.42	1371
89.43	1379
89.44	1356
89.45	1337
89.46	1352
89.47	1369
89.48	1364
89.49	1366
89.5	1355
89.51	1353
89.52	1362
89.53	1378
89.54	1377
89.55	1395
89.56	1357
89.57	1326
89.58	1335
89.59	1358
89.6	1379
89.61	1372
89.62	1365
89.63	1360
89.64	1345
89.65	1335
89.66	1336
89.67	1360
89.68	1379
89.69	1373
89.7	1370
89.71	1389
89.72	1418
89.73	1412
89.74	1394
89.75	1390
89.76	1386
89.77	1421
89.78	1486
89.79	1477
89.8	1441
89.81	1450
89.82	1460
89.83	1447
89.84	1447
89.85	1463
89.86	1513
89.87	1538
89.88	1522
89.89	1493
89.9	1509
89.91	1534
89.92	1517
89.93	1509
89.94	1493
89.95	1480
89.96	1518
89.97	1522
89.98	1473
89.99	1474
90.0	1526
90.01	1552
90.02	1511
90.03	1471
90.04	1468
90.05	1459
90.06	1442
90.07	1471
90.08	1479
90.09	1463
90.1	1462
90.11	1457
90.12	1445
90.13	1447
90.14	1450
90.15	1460
90.16	1458
90.17	1455
90.18	1447
90.19	1409
90.2	1418
90.21	1454
90.22	1459
90.23	1441
90.24	1456
90.25	1492
90.26	1472
90.27	1437
90.28	1392
90.29	1366
90.3	1347
90.31	1347
90.32	1395
90.33	1419
90.34	1415
90.35	1413
90.36	1400
90.37	1371
90.38	1355
90.39	1372
90.4	1386
90.41	1358
90.42	1358
90.43	1373
90.44	1366
90.45	1371
90.46	1351
90.47	1339
90.48	1361
90.49	1401
90.5	1393
90.51	1328
90.52	1302
90.53	1321
90.54	1327
90.55	1314
90.56	1314
90.57	1336
90.58	1358
90.59	1349
90.6	1351
90.61	1379
90.62	1362
90.63	1311
90.64	1288
90.65	1330
90.66	1358
90.67	1352
90.68	1355
90.69	1358
90.7	1349
90.71	1338
90.72	1329
90.73	1341
90.74	1366
90.75	1350
90.76	1331
90.77	1347
90.78	1369
90.79	1360
90.8	1326
90.81	1298
90.82	1316
90.83	1333
90.84	1321
90.85	1313
90.86	1344
90.87	1374
90.88	1366
90.89	1341
90.9	1312
90.91	1332
90.92	1372
90.93	1367
90.94	1320
90.95	1304
90.96	1328
90.97	1337
90.98	1361
90.99	1371
91.0	1348
91.01	1322
91.02	1351
91.03	1375
91.04	1368
91.05	1353
91.06	1324
91.07	1327
91.08	1361
91.09	1386
91.1	1357
91.11	1327
91.12	1344
91.13	1365
91.14	1376
91.15	1363
91.16	1339
91.17	1348
91.18	1376
91.19	1366
91.2	1336
91.21	1347
91.22	1349
91.23	1334
91.24	1353
91.25	1361
91.26	1332
91.27	1342
91.28	1353
91.29	1340
91.3	1347
91.31	1379
91.32	1387
91.33	1364
91.34	1378
91.35	1409
91.36	1414
91.37	1394
91.38	1395
91.39	1423
91.4	1444
91.41	1430
91.42	1404
91.43	1398
91.44	1400
91.45	1411
91.46	1426
91.47	1432
91.48	1459
91.49	1461
91.5	1452
91.51	1463
91.52	1433
91.53	1408
91.54	1415
91.55	1422
91.56	1424
91.57	1424
91.58	1420
91.59	1432
91.6	1424
91.61	1418
91.62	1444
91.63	1458
91.64	1451
91.65	1412
91.66	1382
91.67	1383
91.68	1398
91.69	1421
91.7	1419
91.71	1410
91.72	1425
91.73	1451
91.74	1450
91.75	1419
91.76	1424
91.77	1427
91.78	1403
91.79	1402
91.8	1390
91.81	1368
91.82	1359
91.83	1347
91.84	1328
91.85	1342
91.86	1398
91.87	1424
91.88	1397
91.89	1360
91.9	1349
91.91	1360
91.92	1364
91.93	1390
91.94	1409
91.95	1400
91.96	1411
91.97	1376
91.98	1343
91.99	1373
92.0	1398
92.01	1370
92.02	1341
92.03	1354
92.04	1368
92.05	1375
92.06	1388
92.07	1388
92.08	1370
92.09	1342
92.1	1319
92.11	1334
92.12	1347
92.13	1323
92.14	1316
92.15	1319
92.16	1330
92.17	1298
92.18	1269
92.19	1327
92.2	1365
92.21	1347
92.22	1335
92.23	1333
92.24	1331
92.25	1332
92.26	1325
92.27	1319
92.28	1332
92.29	1360
92.3	1372
92.31	1357
92.32	1341
92.33	1350
92.34	1347
92.35	1341
92.36	1326
92.37	1313
92.38	1325
92.39	1340
92.4	1334
92.41	1313
92.42	1310
92.43	1321
92.44	1318
92.45	1351
92.46	1392
92.47	1407
92.48	1382
92.49	1346
92.5	1325
92.51	1335
92.52	1343
92.53	1356
92.54	1361
92.55	1350
92.56	1328
92.57	1298
92.58	1276
92.59	1276
92.6	1313
92.61	1327
92.62	1329
92.63	1307
92.64	1284
92.65	1314
92.66	1356
92.67	1357
92.68	1324
92.69	1295
92.7	1306
92.71	1359
92.72	1374
92.73	1360
92.74	1321
92.75	1304
92.76	1334
92.77	1330
92.78	1362
92.79	1349
92.8	1316
92.81	1308
92.82	1316
92.83	1355
92.84	1377
92.85	1350
92.86	1341
92.87	1362
92.88	1366
92.89	1344
92.9	1296
92.91	1284
92.92	1310
92.93	1326
92.94	1342
92.95	1345
92.96	1342
92.97	1344
92.98	1329
92.99	1349
93.0	1370
93.01	1351
93.02	1347
93.03	1335
93.04	1340
93.05	1316
93.06	1273
93.07	1269
93.08	1274
93.09	1312
93.1	1320
93.11	1309
93.12	1314
93.13	1327
93.14	1329
93.15	1332
93.16	1324
93.17	1318
93.18	1318
93.19	1317
93.2	1344
93.21	1313
93.22	1324
93.23	1362
93.24	1378
93.25	1354
93.26	1306
93.27	1303
93.28	1313
93.29	1295
93.3	1291
93.31	1325
93.32	1337
93.33	1342
93.34	1353
93.35	1327
93.36	1277
93.37	1255
93.38	1282
93.39	1331
93.4	1342
93.41	1332
93.42	1292
93.43	1291
93.44	1301
93.45	1297
93.46	1318
93.47	1320
93.48	1332
93.49	1343
93.5	1319
93.51	1266
93.52	1291
93.53	1318
93.54	1308
93.55	1329
93.56	1338
93.57	1307
93.58	1268
93.59	1292
93.6	1336
93.61	1317
93.62	1294
93.63	1294
93.64	1333
93.65	1354
93.66	1340
93.67	1304
93.68	1290
93.69	1307
93.7	1334
93.71	1326
93.72	1313
93.73	1320
93.74	1326
93.75	1318
93.76	1328
93.77	1332
93.78	1317
93.79	1298
93.8	1279
93.81	1279
93.82	1310
93.83	1325
93.84	1348
93.85	1368
93.86	1364
93.87	1364
93.88	1354
93.89	1330
93.9	1329
93.91	1307
93.92	1305
93.93	1320
93.94	1310
93.95	1313
93.96	1302
93.97	1282
93.98	1280
93.99	1317
94.0	1331
94.01	1315
94.02	1318
94.03	1314
94.04	1321
94.05	1331
94.06	1334
94.07	1340
94.08	1301
94.09	1305
94.1	1330
94.11	1334
94.12	1322
94.13	1338
94.14	1388
94.15	1371
94.16	1343
94.17	1293
94.18	1285
94.19	1304
94.2	1309
94.21	1343
94.22	1352
94.23	1328
94.24	1271
94.25	1274
94.26	1335
94.27	1393
94.28	1369
94.29	1334
94.3	1341
94.31	1373
94.32	1326
94.33	1328
94.34	1340
94.35	1356
94.36	1357
94.37	1378
94.38	1350
94.39	1344
94.4	1372
94.41	1389
94.42	1370
94.43	1345
94.44	1337
94.45	1339
94.46	1349
94.47	1343
94.48	1333
94.49	1320
94.5	1350
94.51	1376
94.52	1358
94.53	1317
94.54	1328
94.55	1338
94.56	1372
94.57	1390
94.58	1380
94.59	1368
94.6	1352
94.61	1327
94.62	1344
94.63	1372
94.64	1340
94.65	1347
94.66	1335
94.67	1336
94.68	1335
94.69	1343
94.7	1369
94.71	1386
94.72	1396
94.73	1358
94.74	1344
94.75	1364
94.76	1372
94.77	1332
94.78	1318
94.79	1346
94.8	1354
94.81	1304
94.82	1309
94.83	1334
94.84	1365
94.85	1342
94.86	1330
94.87	1372
94.88	1407
94.89	1371
94.9	1323
94.91	1342
94.92	1385
94.93	1386
94.94	1334
94.95	1336
94.96	1328
94.97	1345
94.98	1355
94.99	1364
95.0	1353
95.01	1336
95.02	1308
95.03	1316
95.04	1324
95.05	1339
95.06	1358
95.07	1322
95.08	1295
95.09	1304
95.1	1361
95.11	1307
95.12	1300
95.13	1330
95.14	1335
95.15	1310
95.16	1330
95.17	1318
95.18	1302
95.19	1344
95.2	1360
95.21	1354
95.22	1327
95.23	1334
95.24	1387
95.25	1362
95.26	1313
95.27	1288
95.28	1288
95.29	1296
95.3	1301
95.31	1303
95.32	1303
95.33	1324
95.34	1355
95.35	1336
95.36	1334
95.37	1326
95.38	1306
95.39	1330
95.4	1334
95.41	1321
95.42	1331
95.43	1336
95.44	1340
95.45	1319
95.46	1323
95.47	1339
95.48	1334
95.49	1315
95.5	1318
95.51	1292
95.52	1307
95.53	1355
95.54	1349
95.55	1296
95.56	1336
95.57	1340
95.58	1312
95.59	1322
95.6	1300
95.61	1310
95.62	1329
95.63	1317
95.64	1318
95.65	1313
95.66	1332
95.67	1325
95.68	1298
95.69	1322
95.7	1352
95.71	1363
95.72	1364
95.73	1335
95.74	1381
95.75	1361
95.76	1332
95.77	1296
95.78	1330
95.79	1337
95.8	1380
95.81	1391
95.82	1346
95.83	1331
95.84	1335
95.85	1301
95.86	1315
95.87	1336
95.88	1336
95.89	1312
95.9	1308
95.91	1312
95.92	1316
95.93	1336
95.94	1331
95.95	1308
95.96	1330
95.97	1330
95.98	1331
95.99	1314
96.0	1328
96.01	1341
96.02	1330
96.03	1361
96.04	1358
96.05	1340
96.06	1363
96.07	1361
96.08	1335
96.09	1347
96.1	1376
96.11	1336
96.12	1331
96.13	1364
96.14	1377
96.15	1370
96.16	1342
96.17	1351
96.18	1371
96.19	1375
96.2	1376
96.21	1357
96.22	1320
96.23	1346
96.24	1366
96.25	1311
96.26	1293
96.27	1294
96.28	1324
96.29	1348
96.3	1322
96.31	1312
96.32	1332
96.33	1353
96.34	1350
96.35	1311
96.36	1342
96.37	1348
96.38	1320
96.39	1302
96.4	1328
96.41	1354
96.42	1382
96.43	1334
96.44	1363
96.45	1351
96.46	1324
96.47	1314
96.48	1319
96.49	1310
96.5	1300
96.51	1323
96.52	1325
96.53	1350
96.54	1374
96.55	1340
96.56	1317
96.57	1324
96.58	1300
96.59	1304
96.6	1314
96.61	1299
96.62	1338
96.63	1339
96.64	1320
96.65	1318
96.66	1305
96.67	1284
96.68	1286
96.69	1336
96.7	1380
96.71	1343
96.72	1300
96.73	1348
96.74	1364
96.75	1307
96.76	1325
96.77	1322
96.78	1323
96.79	1331
96.8	1298
96.81	1299
96.82	1252
96.83	1313
96.84	1344
96.85	1321
96.86	1272
96.87	1277
96.88	1322
96.89	1344
96.9	1344
96.91	1359
96.92	1362
96.93	1336
96.94	1332
96.95	1333
96.96	1362
96.97	1359
96.98	1315
96.99	1305
97.0	1327
97.01	1292
97.02	1341
97.03	1342
97.04	1334
97.05	1313
97.06	1308
97.07	1351
97.08	1358
97.09	1309
97.1	1312
97.11	1326
97.12	1322
97.13	1268
97.14	1287
97.15	1322
97.16	1329
97.17	1329
97.18	1360
97.19	1344
97.2	1335
97.21	1329
97.22	1324
97.23	1325
97.24	1310
97.25	1271
97.26	1290
97.27	1312
97.28	1284
97.29	1278
97.3	1340
97.31	1306
97.32	1291
97.33	1293
97.34	1321
97.35	1329
97.36	1310
97.37	1311
97.38	1345
97.39	1335
97.4	1361
97.41	1338
97.42	1306
97.43	1280
97.44	1309
97.45	1334
97.46	1318
97.47	1328
97.48	1346
97.49	1325
97.5	1284
97.51	1319
97.52	1340
97.53	1375
97.54	1358
97.55	1312
97.56	1328
97.57	1352
97.58	1380
97.59	1342
97.6	1315
97.61	1293
97.62	1314
97.63	1335
97.64	1333
97.65	1307
97.66	1249
97.67	1285
97.68	1321
97.69	1312
97.7	1319
97.71	1312
97.72	1347
97.73	1367
97.74	1332
97.75	1344
97.76	1317
97.77	1307
97.78	1305
97.79	1294
97.8	1314
97.81	1282
97.82	1281
97.83	1364
97.84	1367
97.85	1374
97.86	1325
97.87	1320
97.88	1313
97.89	1314
97.9	1296
97.91	1330
97.92	1324
97.93	1336
97.94	1334
97.95	1334
97.96	1332
97.97	1331
97.98	1317
97.99	1294
98.0	1306
98.01	1268
98.02	1307
98.03	1368
98.04	1363
98.05	1290
98.06	1287
98.07	1295
98.08	1309
98.09	1310
98.1	1297
98.11	1352
98.12	1365
98.13	1318
98.14	1338
98.15	1325
98.16	1307
98.17	1323
98.18	1348
98.19	1320
98.2	1301
98.21	1301
98.22	1336
98.23	1363
98.24	1344
98.25	1359
98.26	1368
98.27	1370
98.28	1284
98.29	1274
98.3	1296
98.31	1300
98.32	1324
98.33	1307
98.34	1288
98.35	1276
98.36	1262
98.37	1322
98.38	1308
98.39	1317
98.4	1384
98.41	1375
98.42	1297
98.43	1286
98.44	1319
98.45	1376
98.46	1347
98.47	1300
98.48	1335
98.49	1262
98.5	1288
98.51	1314
98.52	1282
98.53	1308
98.54	1326
98.55	1343
98.56	1308
98.57	1313
98.58	1310
98.59	1328
98.6	1338
98.61	1367
98.62	1347
98.63	1330
98.64	1364
98.65	1330
98.66	1322
98.67	1310
98.68	1312
98.69	1363
98.7	1401
98.71	1343
98.72	1323
98.73	1293
98.74	1318
98.75	1318
98.76	1313
98.77	1368
98.78	1332
98.79	1328
98.8	1327
98.81	1294
98.82	1283
98.83	1326
98.84	1343
98.85	1320
98.86	1331
98.87	1334
98.88	1344
98.89	1361
98.9	1343
98.91	1313
98.92	1301
98.93	1312
98.94	1282
98.95	1302
98.96	1345
98.97	1352
98.98	1365
98.99	1355
99.0	1326
99.01	1315
99.02	1328
99.03	1372
99.04	1323
99.05	1340
99.06	1355
99.07	1348
99.08	1297
99.09	1287
99.1	1288
99.11	1322
99.12	1327
99.13	1363
99.14	1349
99.15	1311
99.16	1293
99.17	1343
99.18	1352
99.19	1338
99.2	1334
99.21	1289
99.22	1261
99.23	1262
99.24	1301
99.25	1291
99.26	1328
99.27	1361
99.28	1350
99.29	1343
99.3	1321
99.31	1279
99.32	1349
99.33	1314
99.34	1318
99.35	1337
99.36	1346
99.37	1364
99.38	1314
99.39	1339
99.4	1360
99.41	1335
99.42	1333
99.43	1335
99.44	1341
99.45	1334
99.46	1348
99.47	1333
99.48	1324
99.49	1330
99.5	1296
99.51	1307
99.52	1334
99.53	1329
99.54	1283
99.55	1294
99.56	1327
99.57	1295
99.58	1344
99.59	1332
99.6	1350
99.61	1348
99.62	1293
99.63	1360
99.64	1336
99.65	1366
99.66	1376
99.67	1327
99.68	1372
99.69	1371
99.7	1314
99.71	1359
99.72	1370
99.73	1346
99.74	1344
99.75	1381
99.76	1323
99.77	1295
99.78	1306
99.79	1370
99.8	1370
99.81	1349
99.82	1381
99.83	1373
99.84	1327
99.85	1353
99.86	1342
99.87	1328
99.88	1324
99.89	1368
99.9	1372
99.91	1336
99.92	1349
99.93	1331
99.94	1342
99.95	1312
99.96	1345
99.97	1346
99.98	1328
99.99	1300
100.0	1379
