Single_MnO_long_scan
Wavelength = 1.54059 Ã… (Cu)
10.0	5136
10.01	5118
10.02	5103
10.03	5083
10.04	5123
10.05	5136
10.06	5212
10.07	5225
10.08	5164
10.09	5171
10.1	5123
10.11	5262
10.12	5344
10.13	5371
10.14	5302
10.15	5291
10.16	5237
10.17	5286
10.18	5328
10.19	5361
10.2	5423
10.21	5344
10.22	5299
10.23	5347
10.24	5331
10.25	5321
10.26	5329
10.27	5401
10.28	5342
10.29	5285
10.3	5376
10.31	5329
10.32	5319
10.33	5308
10.34	5375
10.35	5316
10.36	5360
10.37	5357
10.38	5439
10.39	5334
10.4	5389
10.41	5532
10.42	5477
10.43	5462
10.44	5508
10.45	5536
10.46	5546
10.47	5462
10.48	5486
10.49	5594
10.5	5552
10.51	5463
10.52	5492
10.53	5509
10.54	5501
10.55	5401
10.56	5515
10.57	5503
10.58	5510
10.59	5502
10.6	5568
10.61	5621
10.62	5607
10.63	5567
10.64	5508
10.65	5495
10.66	5577
10.67	5601
10.68	5581
10.69	5575
10.7	5579
10.71	5589
10.72	5653
10.73	5668
10.74	5653
10.75	5712
10.76	5665
10.77	5559
10.78	5589
10.79	5688
10.8	5729
10.81	5763
10.82	5699
10.83	5799
10.84	5845
10.85	5713
10.86	5716
10.87	5754
10.88	5775
10.89	5773
10.9	5726
10.91	5737
10.92	5824
10.93	5848
10.94	5854
10.95	5773
10.96	5959
10.97	5898
10.98	5879
10.99	6034
11.0	5895
11.01	5932
11.02	6009
11.03	6023
11.04	5932
11.05	5910
11.06	6022
11.07	6000
11.08	5951
11.09	5916
11.1	5981
11.11	5934
11.12	5941
11.13	5992
11.14	6084
11.15	6021
11.16	6083
11.17	5940
11.18	5918
11.19	6041
11.2	6084
11.21	6029
11.22	6105
11.23	6069
11.24	6035
11.25	6141
11.26	6141
11.27	6235
11.28	6306
11.29	6111
11.3	6077
11.31	6165
11.32	6188
11.33	6155
11.34	6159
11.35	6200
11.36	6175
11.37	6265
11.38	6196
11.39	6151
11.4	6184
11.41	6206
11.42	6190
11.43	6314
11.44	6324
11.45	6268
11.46	6215
11.47	6181
11.48	6303
11.49	6215
11.5	6268
11.51	6340
11.52	6299
11.53	6366
11.54	6343
11.55	6292
11.56	6246
11.57	6289
11.58	6393
11.59	6320
11.6	6375
11.61	6409
11.62	6468
11.63	6380
11.64	6396
11.65	6410
11.66	6332
11.67	6364
11.68	6324
11.69	6360
11.7	6456
11.71	6407
11.72	6424
11.73	6457
11.74	6557
11.75	6547
11.76	6468
11.77	6556
11.78	6459
11.79	6622
11.8	6526
11.81	6509
11.82	6533
11.83	6538
11.84	6587
11.85	6558
11.86	6548
11.87	6493
11.88	6481
11.89	6591
11.9	6647
11.91	6575
11.92	6616
11.93	6588
11.94	6561
11.95	6655
11.96	6573
11.97	6644
11.98	6606
11.99	6601
12.0	6712
12.01	6711
12.02	6805
12.03	6772
12.04	6736
12.05	6827
12.06	6719
12.07	6730
12.08	6734
12.09	6829
12.1	6816
12.11	6719
12.12	6806
12.13	6811
12.14	6800
12.15	6835
12.16	6867
12.17	6807
12.18	6824
12.19	6911
12.2	6960
12.21	6995
12.22	6941
12.23	6878
12.24	6837
12.25	6830
12.26	6964
12.27	6945
12.28	6869
12.29	7003
12.3	6995
12.31	7012
12.32	7037
12.33	7021
12.34	7032
12.35	7103
12.36	7171
12.37	7129
12.38	7178
12.39	7175
12.4	7064
12.41	7142
12.42	7215
12.43	7247
12.44	7210
12.45	7217
12.46	7202
12.47	7271
12.48	7290
12.49	7378
12.5	7289
12.51	7277
12.52	7283
12.53	7335
12.54	7405
12.55	7387
12.56	7347
12.57	7431
12.58	7399
12.59	7333
12.6	7431
12.61	7512
12.62	7417
12.63	7439
12.64	7461
12.65	7559
12.66	7464
12.67	7584
12.68	7567
12.69	7646
12.7	7673
12.71	7726
12.72	7705
12.73	7690
12.74	7711
12.75	7810
12.76	7844
12.77	7755
12.78	7808
12.79	7765
12.8	7802
12.81	7859
12.82	7834
12.83	7938
12.84	7961
12.85	8000
12.86	7969
12.87	7807
12.88	7937
12.89	8023
12.9	8069
12.91	8041
12.92	8112
12.93	8210
12.94	8273
12.95	8241
12.96	8382
12.97	8339
12.98	8327
12.99	8369
13.0	8401
13.01	8497
13.02	8458
13.03	8464
13.04	8494
13.05	8570
13.06	8626
13.07	8549
13.08	8612
13.09	8809
13.1	8757
13.11	8749
13.12	8764
13.13	8742
13.14	8798
13.15	8866
13.16	8838
13.17	8840
13.18	8853
13.19	8931
13.2	9017
13.21	9081
13.22	9045
13.23	9160
13.24	9203
13.25	9239
13.26	9303
13.27	9346
13.28	9460
13.29	9553
13.3	9571
13.31	9590
13.32	9472
13.33	9548
13.34	9583
13.35	9666
13.36	9772
13.37	9803
13.38	9770
13.39	9818
13.4	9921
13.41	10021
13.42	9913
13.43	9879
13.44	10053
13.45	10232
13.46	10254
13.47	10187
13.48	10207
13.49	10308
13.5	10367
13.51	10370
13.52	10457
13.53	10364
13.54	10388
13.55	10521
13.56	10639
13.57	10683
13.58	10754
13.59	10782
13.6	10758
13.61	10781
13.62	10857
13.63	10821
13.64	10840
13.65	10976
13.66	11080
13.67	11140
13.68	11172
13.69	11199
13.7	11151
13.71	11379
13.72	11458
13.73	11362
13.74	11450
13.75	11451
13.76	11471
13.77	11612
13.78	11626
13.79	11697
13.8	11825
13.81	11846
13.82	11757
13.83	11749
13.84	11777
13.85	11771
13.86	11985
13.87	12065
13.88	11969
13.89	12114
13.9	12264
13.91	12274
13.92	12227
13.93	12387
13.94	12337
13.95	12299
13.96	12488
13.97	12623
13.98	12670
13.99	12634
14.0	12680
14.01	12698
14.02	12575
14.03	12663
14.04	12814
14.05	12862
14.06	12931
14.07	12986
14.08	12876
14.09	12980
14.1	13043
14.11	12927
14.12	12930
14.13	13209
14.14	13240
14.15	13236
14.16	13193
14.17	13212
14.18	13302
14.19	13340
14.2	13361
14.21	13322
14.22	13265
14.23	13401
14.24	13477
14.25	13450
14.26	13382
14.27	13473
14.28	13517
14.29	13585
14.3	13606
14.31	13548
14.32	13711
14.33	13754
14.34	13667
14.35	13661
14.36	13671
14.37	13651
14.38	13725
14.39	13780
14.4	13769
14.41	13717
14.42	13821
14.43	13810
14.44	13803
14.45	13858
14.46	13973
14.47	13968
14.48	13908
14.49	13961
14.5	13994
14.51	13982
14.52	13899
14.53	13996
14.54	13968
14.55	13987
14.56	14035
14.57	13980
14.58	13905
14.59	13875
14.6	13910
14.61	13918
14.62	13978
14.63	13969
14.64	13988
14.65	14056
14.66	14015
14.67	14030
14.68	14164
14.69	14127
14.7	14073
14.71	14057
14.72	14096
14.73	14203
14.74	14203
14.75	14253
14.76	14116
14.77	14164
14.78	14065
14.79	14017
14.8	14064
14.81	14160
14.82	14138
14.83	14252
14.84	14241
14.85	13952
14.86	13931
14.87	13929
14.88	13898
14.89	13980
14.9	14078
14.91	14052
14.92	13942
14.93	13964
14.94	13965
14.95	14040
14.96	13940
14.97	13987
14.98	13982
14.99	13949
15.0	13888
15.01	13970
15.02	14018
15.03	13970
15.04	13929
15.05	13926
15.06	13922
15.07	13916
15.08	13923
15.09	13979
15.1	13991
15.11	13956
15.12	13805
15.13	13733
15.14	13693
15.15	13709
15.16	13851
15.17	13863
15.18	13789
15.19	13766
15.2	13771
15.21	13675
15.22	13627
15.23	13629
15.24	13705
15.25	13708
15.26	13631
15.27	13582
15.28	13670
15.29	13683
15.3	13785
15.31	13804
15.32	13726
15.33	13719
15.34	13589
15.35	13498
15.36	13531
15.37	13632
15.38	13627
15.39	13623
15.4	13586
15.41	13465
15.42	13370
15.43	13305
15.44	13462
15.45	13458
15.46	13504
15.47	13601
15.48	13613
15.49	13488
15.5	13471
15.51	13569
15.52	13575
15.53	13499
15.54	13384
15.55	13350
15.56	13448
15.57	13424
15.58	13366
15.59	13436
15.6	13410
15.61	13326
15.62	13300
15.63	13271
15.64	13343
15.65	13392
15.66	13380
15.67	13353
15.68	13262
15.69	13173
15.7	13194
15.71	13224
15.72	13293
15.73	13356
15.74	13269
15.75	13180
15.76	13139
15.77	13136
15.78	13175
15.79	13232
15.8	13115
15.81	13109
15.82	13101
15.83	13057
15.84	13047
15.85	13010
15.86	12980
15.87	12937
15.88	12961
15.89	12934
15.9	12893
15.91	12939
15.92	13020
15.93	12964
15.94	12909
15.95	13026
15.96	12984
15.97	12964
15.98	12998
15.99	12906
16.0	12972
16.01	13065
16.02	13006
16.03	13006
16.04	12925
16.05	12847
16.06	12885
16.07	12951
16.08	12965
16.09	12983
16.1	12980
16.11	12894
16.12	12856
16.13	12974
16.14	12970
16.15	12825
16.16	12795
16.17	12808
16.18	12837
16.19	12941
16.2	12920
16.21	12929
16.22	12950
16.23	12920
16.24	12874
16.25	12835
16.26	12919
16.27	12945
16.28	12856
16.29	12824
16.3	12793
16.31	12801
16.32	12848
16.33	12871
16.34	12763
16.35	12656
16.36	12698
16.37	12840
16.38	12887
16.39	12829
16.4	12784
16.41	12771
16.42	12736
16.43	12740
16.44	12785
16.45	12810
16.46	12805
16.47	12825
16.48	12844
16.49	12871
16.5	12903
16.51	12894
16.52	12781
16.53	12773
16.54	12823
16.55	12814
16.56	12805
16.57	12859
16.58	12854
16.59	12819
16.6	12838
16.61	12788
16.62	12834
16.63	12922
16.64	12921
16.65	12903
16.66	12869
16.67	12838
16.68	12706
16.69	12667
16.7	12670
16.71	12776
16.72	12866
16.73	12911
16.74	12972
16.75	12916
16.76	12833
16.77	12860
16.78	12815
16.79	12766
16.8	12830
16.81	12860
16.82	12826
16.83	12839
16.84	12895
16.85	12893
16.86	12888
16.87	12884
16.88	12878
16.89	12820
16.9	12844
16.91	12888
16.92	12888
16.93	12903
16.94	12946
16.95	12968
16.96	12986
16.97	12981
16.98	12914
16.99	12853
17.0	12855
17.01	12952
17.02	13047
17.03	13049
17.04	13001
17.05	12950
17.06	12950
17.07	12936
17.08	12911
17.09	12931
17.1	13004
17.11	12963
17.12	12958
17.13	13069
17.14	13068
17.15	13012
17.16	13012
17.17	12955
17.18	12852
17.19	12853
17.2	12921
17.21	12945
17.22	12925
17.23	12892
17.24	12963
17.25	13120
17.26	13078
17.27	12948
17.28	12975
17.29	13120
17.3	13121
17.31	13117
17.32	13028
17.33	12933
17.34	13040
17.35	13015
17.36	13013
17.37	13066
17.38	13093
17.39	13093
17.4	12967
17.41	12928
17.42	13022
17.43	13156
17.44	13199
17.45	13062
17.46	12960
17.47	13025
17.48	13097
17.49	13128
17.5	13166
17.51	13159
17.52	13169
17.53	13140
17.54	13093
17.55	13078
17.56	13126
17.57	13154
17.58	13154
17.59	13131
17.6	13074
17.61	13119
17.62	13145
17.63	13109
17.64	13105
17.65	13151
17.66	13139
17.67	13097
17.68	13152
17.69	13255
17.7	13330
17.71	13315
17.72	13198
17.73	13121
17.74	13086
17.75	13141
17.76	13190
17.77	13217
17.78	13285
17.79	13227
17.8	13166
17.81	13153
17.82	13182
17.83	13261
17.84	13290
17.85	13237
17.86	13240
17.87	13290
17.88	13180
17.89	13061
17.9	13102
17.91	13142
17.92	13189
17.93	13236
17.94	13269
17.95	13257
17.96	13215
17.97	13259
17.98	13399
17.99	13432
18.0	13236
18.01	13261
18.02	13381
18.03	13298
18.04	13260
18.05	13312
18.06	13373
18.07	13348
18.08	13310
18.09	13340
18.1	13324
18.11	13359
18.12	13429
18.13	13380
18.14	13304
18.15	13309
18.16	13307
18.17	13298
18.18	13324
18.19	13428
18.2	13358
18.21	13237
18.22	13214
18.23	13249
18.24	13297
18.25	13328
18.26	13314
18.27	13257
18.28	13253
18.29	13264
18.3	13274
18.31	13267
18.32	13306
18.33	13362
18.34	13344
18.35	13327
18.36	13313
18.37	13317
18.38	13231
18.39	13249
18.4	13326
18.41	13395
18.42	13381
18.43	13318
18.44	13316
18.45	13346
18.46	13386
18.47	13410
18.48	13498
18.49	13458
18.5	13363
18.51	13383
18.52	13452
18.53	13410
18.54	13341
18.55	13423
18.56	13432
18.57	13398
18.58	13415
18.59	13343
18.6	13345
18.61	13280
18.62	13190
18.63	13292
18.64	13344
18.65	13314
18.66	13333
18.67	13341
18.68	13360
18.69	13414
18.7	13570
18.71	13554
18.72	13449
18.73	13449
18.74	13506
18.75	13490
18.76	13377
18.77	13403
18.78	13450
18.79	13391
18.8	13438
18.81	13480
18.82	13438
18.83	13362
18.84	13447
18.85	13499
18.86	13506
18.87	13433
18.88	13367
18.89	13418
18.9	13470
18.91	13515
18.92	13507
18.93	13394
18.94	13324
18.95	13368
18.96	13437
18.97	13457
18.98	13449
18.99	13499
19.0	13504
19.01	13515
19.02	13467
19.03	13459
19.04	13495
19.05	13519
19.06	13413
19.07	13301
19.08	13318
19.09	13376
19.1	13408
19.11	13417
19.12	13455
19.13	13348
19.14	13280
19.15	13365
19.16	13400
19.17	13305
19.18	13244
19.19	13244
19.2	13255
19.21	13320
19.22	13419
19.23	13429
19.24	13403
19.25	13300
19.26	13317
19.27	13254
19.28	13219
19.29	13294
19.3	13362
19.31	13350
19.32	13392
19.33	13308
19.34	13254
19.35	13290
19.36	13327
19.37	13397
19.38	13423
19.39	13425
19.4	13386
19.41	13265
19.42	13278
19.43	13347
19.44	13364
19.45	13358
19.46	13310
19.47	13330
19.48	13314
19.49	13348
19.5	13244
19.51	13195
19.52	13267
19.53	13295
19.54	13247
19.55	13126
19.56	13293
19.57	13438
19.58	13428
19.59	13408
19.6	13302
19.61	13266
19.62	13329
19.63	13314
19.64	13300
19.65	13314
19.66	13357
19.67	13377
19.68	13327
19.69	13426
19.7	13392
19.71	13275
19.72	13263
19.73	13323
19.74	13322
19.75	13247
19.76	13296
19.77	13267
19.78	13185
19.79	13168
19.8	13181
19.81	13189
19.82	13268
19.83	13308
19.84	13298
19.85	13122
19.86	13180
19.87	13372
19.88	13354
19.89	13265
19.9	13183
19.91	13305
19.92	13364
19.93	13230
19.94	13192
19.95	13250
19.96	13265
19.97	13210
19.98	13150
19.99	13136
20.0	13155
20.01	13154
20.02	13231
20.03	13265
20.04	13301
20.05	13323
20.06	13389
20.07	13244
20.08	13212
20.09	13332
20.1	13383
20.11	13170
20.12	13209
20.13	13224
20.14	13115
20.15	13223
20.16	13350
20.17	13292
20.18	13232
20.19	13162
20.2	13188
20.21	13227
20.22	13279
20.23	13308
20.24	13368
20.25	13366
20.26	13366
20.27	13334
20.28	13285
20.29	13292
20.3	13417
20.31	13426
20.32	13261
20.33	13116
20.34	13256
20.35	13400
20.36	13414
20.37	13382
20.38	13362
20.39	13339
20.4	13301
20.41	13350
20.42	13383
20.43	13276
20.44	13359
20.45	13402
20.46	13394
20.47	13481
20.48	13406
20.49	13386
20.5	13421
20.51	13375
20.52	13351
20.53	13394
20.54	13440
20.55	13367
20.56	13436
20.57	13483
20.58	13466
20.59	13517
20.6	13511
20.61	13510
20.62	13532
20.63	13609
20.64	13594
20.65	13522
20.66	13580
20.67	13450
20.68	13386
20.69	13469
20.7	13626
20.71	13609
20.72	13541
20.73	13624
20.74	13517
20.75	13468
20.76	13667
20.77	13668
20.78	13583
20.79	13645
20.8	13792
20.81	13765
20.82	13644
20.83	13672
20.84	13710
20.85	13754
20.86	13748
20.87	13783
20.88	13805
20.89	13758
20.9	13781
20.91	13774
20.92	13678
20.93	13641
20.94	13801
20.95	13939
20.96	13967
20.97	13913
20.98	13973
20.99	13842
21.0	13835
21.01	13712
21.02	13806
21.03	13939
21.04	13992
21.05	14032
21.06	13864
21.07	13852
21.08	13920
21.09	14003
21.1	14077
21.11	14062
21.12	14159
21.13	14115
21.14	13912
21.15	14100
21.16	14247
21.17	14307
21.18	14228
21.19	14079
21.2	14042
21.21	14090
21.22	14085
21.23	14090
21.24	14182
21.25	14229
21.26	14229
21.27	14198
21.28	14181
21.29	14314
21.3	14366
21.31	14295
21.32	14285
21.33	14520
21.34	14403
21.35	14375
21.36	14221
21.37	14120
21.38	14183
21.39	14299
21.4	14354
21.41	14334
21.42	14271
21.43	14308
21.44	14405
21.45	14383
21.46	14375
21.47	14525
21.48	14424
21.49	14336
21.5	14482
21.51	14495
21.52	14395
21.53	14442
21.54	14369
21.55	14263
21.56	14344
21.57	14462
21.58	14380
21.59	14450
21.6	14432
21.61	14459
21.62	14492
21.63	14411
21.64	14448
21.65	14540
21.66	14522
21.67	14598
21.68	14600
21.69	14560
21.7	14526
21.71	14546
21.72	14508
21.73	14493
21.74	14489
21.75	14449
21.76	14482
21.77	14279
21.78	14317
21.79	14466
21.8	14578
21.81	14469
21.82	14453
21.83	14468
21.84	14489
21.85	14538
21.86	14538
21.87	14501
21.88	14499
21.89	14352
21.9	14222
21.91	14310
21.92	14470
21.93	14558
21.94	14409
21.95	14382
21.96	14287
21.97	14211
21.98	14446
21.99	14440
22.0	14407
22.01	14313
22.02	14313
22.03	14503
22.04	14413
22.05	14382
22.06	14308
22.07	14264
22.08	14327
22.09	14259
22.1	14160
22.11	14318
22.12	14376
22.13	14082
22.14	14020
22.15	14007
22.16	14094
22.17	13958
22.18	13875
22.19	14123
22.2	13968
22.21	13922
22.22	13886
22.23	13954
22.24	13996
22.25	13978
22.26	13769
22.27	13659
22.28	13684
22.29	13718
22.3	13799
22.31	13671
22.32	13577
22.33	13762
22.34	13728
22.35	13740
22.36	13705
22.37	13546
22.38	13670
22.39	13568
22.4	13555
22.41	13535
22.42	13335
22.43	13413
22.44	13579
22.45	13402
22.46	13112
22.47	13306
22.48	13138
22.49	13258
22.5	13405
22.51	13485
22.52	13368
22.53	13260
22.54	13227
22.55	13130
22.56	13024
22.57	13108
22.58	13007
22.59	13020
22.6	13160
22.61	12992
22.62	13031
22.63	12956
22.64	12871
22.65	12844
22.66	12746
22.67	12818
22.68	12808
22.69	12746
22.7	12711
22.71	12805
22.72	12718
22.73	12548
22.74	12417
22.75	12512
22.76	12657
22.77	12575
22.78	12349
22.79	12328
22.8	12299
22.81	12308
22.82	12298
22.83	12238
22.84	12379
22.85	12077
22.86	12002
22.87	12088
22.88	12153
22.89	12221
22.9	12198
22.91	12205
22.92	12134
22.93	12048
22.94	12022
22.95	11907
22.96	11866
22.97	11953
22.98	11851
22.99	11851
23.0	11796
23.01	11888
23.02	11803
23.03	11574
23.04	11569
23.05	11728
23.06	11608
23.07	11596
23.08	11642
23.09	11457
23.1	11446
23.11	11523
23.12	11489
23.13	11379
23.14	11332
23.15	11369
23.16	11285
23.17	11352
23.18	11320
23.19	11221
23.2	11256
23.21	11340
23.22	11261
23.23	11180
23.24	11133
23.25	11021
23.26	11110
23.27	11019
23.28	10993
23.29	10892
23.3	10832
23.31	10844
23.32	10898
23.33	10961
23.34	10842
23.35	10703
23.36	10709
23.37	10730
23.38	10767
23.39	10808
23.4	10671
23.41	10615
23.42	10589
23.43	10741
23.44	10723
23.45	10684
23.46	10556
23.47	10633
23.48	10558
23.49	10535
23.5	10500
23.51	10416
23.52	10364
23.53	10508
23.54	10439
23.55	10427
23.56	10500
23.57	10421
23.58	10390
23.59	10310
23.6	10208
23.61	10127
23.62	10212
23.63	10256
23.64	10136
23.65	10082
23.66	10145
23.67	10182
23.68	10110
23.69	10087
23.7	9961
23.71	9955
23.72	9989
23.73	10022
23.74	10003
23.75	9996
23.76	9929
23.77	9825
23.78	9872
23.79	9777
23.8	9623
23.81	9704
23.82	9696
23.83	9776
23.84	9752
23.85	9805
23.86	9868
23.87	9745
23.88	9733
23.89	9737
23.9	9653
23.91	9690
23.92	9742
23.93	9593
23.94	9650
23.95	9665
23.96	9621
23.97	9663
23.98	9742
23.99	9636
24.0	9605
24.01	9568
24.02	9564
24.03	9522
24.04	9550
24.05	9558
24.06	9518
24.07	9559
24.08	9533
24.09	9555
24.1	9505
24.11	9341
24.12	9438
24.13	9534
24.14	9458
24.15	9484
24.16	9382
24.17	9399
24.18	9366
24.19	9300
24.2	9282
24.21	9341
24.22	9333
24.23	9316
24.24	9360
24.25	9358
24.26	9272
24.27	9206
24.28	9262
24.29	9291
24.3	9151
24.31	9176
24.32	9217
24.33	9203
24.34	9179
24.35	9238
24.36	9164
24.37	9263
24.38	9354
24.39	9335
24.4	9327
24.41	9192
24.42	9109
24.43	9196
24.44	9202
24.45	9131
24.46	9198
24.47	9130
24.48	9075
24.49	9205
24.5	9285
24.51	9319
24.52	9243
24.53	9112
24.54	9046
24.55	9029
24.56	9020
24.57	9065
24.58	9120
24.59	9105
24.6	9090
24.61	9111
24.62	9158
24.63	9121
24.64	9132
24.65	9163
24.66	9193
24.67	9099
24.68	9149
24.69	9115
24.7	9025
24.71	9033
24.72	8989
24.73	9139
24.74	9143
24.75	9065
24.76	8973
24.77	9026
24.78	9086
24.79	9189
24.8	9064
24.81	9112
24.82	9166
24.83	9174
24.84	9276
24.85	9277
24.86	9175
24.87	9200
24.88	9195
24.89	9141
24.9	9136
24.91	9177
24.92	9113
24.93	9062
24.94	9043
24.95	9021
24.96	9093
24.97	9184
24.98	9205
24.99	9175
25.0	9150
25.01	9157
25.02	9127
25.03	9165
25.04	9206
25.05	9188
25.06	9129
25.07	9095
25.08	9043
25.09	9051
25.1	9130
25.11	9138
25.12	9080
25.13	9153
25.14	9160
25.15	9099
25.16	9171
25.17	9131
25.18	9110
25.19	9134
25.2	9168
25.21	9228
25.22	9252
25.23	9248
25.24	9194
25.25	9134
25.26	9184
25.27	9219
25.28	9122
25.29	9231
25.3	9291
25.31	9280
25.32	9240
25.33	9260
25.34	9241
25.35	9212
25.36	9200
25.37	9209
25.38	9256
25.39	9223
25.4	9268
25.41	9235
25.42	9253
25.43	9160
25.44	9201
25.45	9341
25.46	9432
25.47	9400
25.48	9324
25.49	9217
25.5	9192
25.51	9304
25.52	9435
25.53	9415
25.54	9366
25.55	9411
25.56	9353
25.57	9271
25.58	9251
25.59	9193
25.6	9247
25.61	9355
25.62	9381
25.63	9388
25.64	9452
25.65	9411
25.66	9324
25.67	9242
25.68	9273
25.69	9386
25.7	9372
25.71	9341
25.72	9475
25.73	9539
25.74	9490
25.75	9431
25.76	9482
25.77	9495
25.78	9433
25.79	9351
25.8	9297
25.81	9307
25.82	9311
25.83	9283
25.84	9284
25.85	9269
25.86	9262
25.87	9327
25.88	9380
25.89	9389
25.9	9357
25.91	9338
25.92	9399
25.93	9484
25.94	9471
25.95	9461
25.96	9346
25.97	9219
25.98	9220
25.99	9277
26.0	9360
26.01	9397
26.02	9410
26.03	9405
26.04	9350
26.05	9306
26.06	9376
26.07	9439
26.08	9399
26.09	9277
26.1	9187
26.11	9235
26.12	9286
26.13	9294
26.14	9318
26.15	9332
26.16	9350
26.17	9379
26.18	9315
26.19	9243
26.2	9243
26.21	9258
26.22	9237
26.23	9157
26.24	9045
26.25	9113
26.26	9225
26.27	9226
26.28	9170
26.29	9187
26.3	9149
26.31	9131
26.32	9135
26.33	8967
26.34	8919
26.35	9080
26.36	9092
26.37	8984
26.38	9046
26.39	9083
26.4	9074
26.41	9095
26.42	9029
26.43	8979
26.44	8957
26.45	8879
26.46	8832
26.47	8889
26.48	8949
26.49	8897
26.5	8814
26.51	8822
26.52	8866
26.53	8896
26.54	8907
26.55	8836
26.56	8818
26.57	8868
26.58	8822
26.59	8752
26.6	8798
26.61	8806
26.62	8703
26.63	8639
26.64	8628
26.65	8613
26.66	8589
26.67	8581
26.68	8610
26.69	8564
26.7	8547
26.71	8575
26.72	8582
26.73	8535
26.74	8462
26.75	8412
26.76	8394
26.77	8378
26.78	8353
26.79	8396
26.8	8434
26.81	8413
26.82	8353
26.83	8236
26.84	8222
26.85	8305
26.86	8339
26.87	8265
26.88	8194
26.89	8170
26.9	8101
26.91	8115
26.92	8155
26.93	8141
26.94	8099
26.95	8052
26.96	8056
26.97	8054
26.98	8002
26.99	7954
27.0	7915
27.01	7859
27.02	7906
27.03	7968
27.04	7917
27.05	7876
27.06	7828
27.07	7825
27.08	7828
27.09	7792
27.1	7754
27.11	7729
27.12	7774
27.13	7767
27.14	7725
27.15	7710
27.16	7683
27.17	7650
27.18	7623
27.19	7589
27.2	7527
27.21	7505
27.22	7530
27.23	7486
27.24	7397
27.25	7364
27.26	7377
27.27	7394
27.28	7359
27.29	7340
27.3	7349
27.31	7321
27.32	7340
27.33	7368
27.34	7275
27.35	7153
27.36	7162
27.37	7225
27.38	7273
27.39	7315
27.4	7288
27.41	7286
27.42	7278
27.43	7149
27.44	7067
27.45	7113
27.46	7157
27.47	7158
27.48	7121
27.49	7087
27.5	7045
27.51	7000
27.52	7027
27.53	7021
27.54	6980
27.55	6940
27.56	6930
27.57	6920
27.58	6957
27.59	6972
27.6	6915
27.61	6854
27.62	6801
27.63	6790
27.64	6844
27.65	6846
27.66	6816
27.67	6797
27.68	6810
27.69	6838
27.7	6760
27.71	6733
27.72	6735
27.73	6707
27.74	6730
27.75	6692
27.76	6639
27.77	6620
27.78	6558
27.79	6570
27.8	6621
27.81	6604
27.82	6529
27.83	6487
27.84	6505
27.85	6488
27.86	6410
27.87	6363
27.88	6355
27.89	6380
27.9	6394
27.91	6382
27.92	6389
27.93	6345
27.94	6344
27.95	6380
27.96	6424
27.97	6384
27.98	6345
27.99	6332
28.0	6265
28.01	6215
28.02	6216
28.03	6236
28.04	6214
28.05	6182
28.06	6172
28.07	6192
28.08	6222
28.09	6264
28.1	6247
28.11	6148
28.12	6075
28.13	6036
28.14	6110
28.15	6237
28.16	6221
28.17	6061
28.18	5977
28.19	5984
28.2	6005
28.21	5994
28.22	6008
28.23	6061
28.24	6054
28.25	5998
28.26	6017
28.27	6000
28.28	5953
28.29	5949
28.3	5929
28.31	5919
28.32	5936
28.33	5921
28.34	5884
28.35	5838
28.36	5874
28.37	5897
28.38	5854
28.39	5856
28.4	5868
28.41	5809
28.42	5803
28.43	5834
28.44	5773
28.45	5745
28.46	5788
28.47	5752
28.48	5696
28.49	5722
28.5	5738
28.51	5744
28.52	5699
28.53	5668
28.54	5660
28.55	5689
28.56	5715
28.57	5701
28.58	5656
28.59	5640
28.6	5560
28.61	5597
28.62	5677
28.63	5676
28.64	5609
28.65	5636
28.66	5651
28.67	5633
28.68	5643
28.69	5692
28.7	5653
28.71	5559
28.72	5482
28.73	5438
28.74	5464
28.75	5500
28.76	5490
28.77	5462
28.78	5436
28.79	5459
28.8	5463
28.81	5436
28.82	5392
28.83	5359
28.84	5346
28.85	5380
28.86	5443
28.87	5372
28.88	5313
28.89	5328
28.9	5365
28.91	5337
28.92	5291
28.93	5301
28.94	5377
28.95	5321
28.96	5263
28.97	5228
28.98	5201
28.99	5248
29.0	5251
29.01	5216
29.02	5163
29.03	5137
29.04	5114
29.05	5156
29.06	5174
29.07	5190
29.08	5161
29.09	5139
29.1	5153
29.11	5152
29.12	5193
29.13	5186
29.14	5147
29.15	5065
29.16	5061
29.17	5148
29.18	5039
29.19	5057
29.2	5128
29.21	5113
29.22	5102
29.23	5072
29.24	5100
29.25	5039
29.26	4982
29.27	4968
29.28	4981
29.29	5055
29.3	5054
29.31	5012
29.32	4979
29.33	4988
29.34	5001
29.35	4943
29.36	4922
29.37	4933
29.38	4917
29.39	4960
29.4	4946
29.41	4914
29.42	4916
29.43	4857
29.44	4822
29.45	4772
29.46	4835
29.47	4882
29.48	4894
29.49	4865
29.5	4843
29.51	4778
29.52	4761
29.53	4782
29.54	4719
29.55	4686
29.56	4708
29.57	4694
29.58	4713
29.59	4710
29.6	4703
29.61	4682
29.62	4652
29.63	4716
29.64	4713
29.65	4665
29.66	4638
29.67	4586
29.68	4586
29.69	4568
29.7	4552
29.71	4600
29.72	4603
29.73	4570
29.74	4556
29.75	4538
29.76	4567
29.77	4638
29.78	4642
29.79	4572
29.8	4527
29.81	4591
29.82	4582
29.83	4570
29.84	4555
29.85	4535
29.86	4535
29.87	4520
29.88	4425
29.89	4457
29.9	4439
29.91	4462
29.92	4443
29.93	4463
29.94	4423
29.95	4438
29.96	4421
29.97	4378
29.98	4409
29.99	4360
30.0	4324
30.01	4388
30.02	4388
30.03	4488
30.04	4452
30.05	4399
30.06	4349
30.07	4332
30.08	4325
30.09	4410
30.1	4368
30.11	4402
30.12	4318
30.13	4309
30.14	4364
30.15	4349
30.16	4300
30.17	4336
30.18	4342
30.19	4358
30.2	4298
30.21	4267
30.22	4254
30.23	4277
30.24	4321
30.25	4175
30.26	4197
30.27	4215
30.28	4273
30.29	4330
30.3	4240
30.31	4256
30.32	4261
30.33	4257
30.34	4218
30.35	4230
30.36	4284
30.37	4283
30.38	4229
30.39	4216
30.4	4160
30.41	4180
30.42	4194
30.43	4161
30.44	4126
30.45	4134
30.46	4246
30.47	4159
30.48	4119
30.49	4145
30.5	4147
30.51	4135
30.52	4206
30.53	4279
30.54	4229
30.55	4128
30.56	4107
30.57	4121
30.58	4151
30.59	4103
30.6	4097
30.61	4032
30.62	4048
30.63	4007
30.64	4154
30.65	4159
30.66	4070
30.67	4124
30.68	4039
30.69	4005
30.7	4070
30.71	4045
30.72	4005
30.73	4005
30.74	4022
30.75	3969
30.76	3967
30.77	3997
30.78	3987
30.79	3998
30.8	3950
30.81	3946
30.82	3990
30.83	3903
30.84	3879
30.85	3998
30.86	3934
30.87	3886
30.88	3995
30.89	3895
30.9	3764
30.91	3892
30.92	3862
30.93	3846
30.94	3884
30.95	3825
30.96	3854
30.97	3920
30.98	3780
30.99	3781
31.0	3838
31.01	3893
31.02	3950
31.03	3951
31.04	3933
31.05	3873
31.06	3840
31.07	3852
31.08	3885
31.09	3804
31.1	3720
31.11	3823
31.12	3798
31.13	3809
31.14	3789
31.15	3730
31.16	3763
31.17	3868
31.18	3823
31.19	3782
31.2	3668
31.21	3648
31.22	3708
31.23	3760
31.24	3765
31.25	3773
31.26	3733
31.27	3778
31.28	3867
31.29	3806
31.3	3658
31.31	3710
31.32	3725
31.33	3732
31.34	3763
31.35	3738
31.36	3766
31.37	3687
31.38	3672
31.39	3603
31.4	3658
31.41	3720
31.42	3672
31.43	3657
31.44	3628
31.45	3614
31.46	3581
31.47	3630
31.48	3647
31.49	3656
31.5	3650
31.51	3644
31.52	3669
31.53	3596
31.54	3573
31.55	3634
31.56	3521
31.57	3512
31.58	3534
31.59	3549
31.6	3640
31.61	3604
31.62	3577
31.63	3537
31.64	3516
31.65	3566
31.66	3612
31.67	3587
31.68	3612
31.69	3566
31.7	3576
31.71	3622
31.72	3552
31.73	3535
31.74	3518
31.75	3575
31.76	3550
31.77	3581
31.78	3569
31.79	3547
31.8	3560
31.81	3530
31.82	3475
31.83	3478
31.84	3513
31.85	3560
31.86	3501
31.87	3464
31.88	3588
31.89	3531
31.9	3476
31.91	3509
31.92	3517
31.93	3425
31.94	3489
31.95	3530
31.96	3499
31.97	3463
31.98	3440
31.99	3452
32.0	3522
32.01	3451
32.02	3409
32.03	3368
32.04	3462
32.05	3491
32.06	3524
32.07	3463
32.08	3353
32.09	3388
32.1	3376
32.11	3411
32.12	3422
32.13	3456
32.14	3435
32.15	3453
32.16	3479
32.17	3395
32.18	3393
32.19	3454
32.2	3469
32.21	3390
32.22	3363
32.23	3321
32.24	3319
32.25	3349
32.26	3346
32.27	3292
32.28	3320
32.29	3402
32.3	3401
32.31	3395
32.32	3388
32.33	3438
32.34	3417
32.35	3392
32.36	3436
32.37	3322
32.38	3291
32.39	3344
32.4	3353
32.41	3411
32.42	3357
32.43	3394
32.44	3383
32.45	3366
32.46	3373
32.47	3324
32.48	3278
32.49	3344
32.5	3294
32.51	3310
32.52	3330
32.53	3296
32.54	3257
32.55	3259
32.56	3303
32.57	3293
32.58	3275
32.59	3312
32.6	3269
32.61	3282
32.62	3217
32.63	3266
32.64	3230
32.65	3264
32.66	3257
32.67	3248
32.68	3264
32.69	3253
32.7	3225
32.71	3225
32.72	3243
32.73	3222
32.74	3238
32.75	3211
32.76	3240
32.77	3241
32.78	3225
32.79	3175
32.8	3205
32.81	3207
32.82	3191
32.83	3203
32.84	3189
32.85	3209
32.86	3216
32.87	3255
32.88	3204
32.89	3211
32.9	3177
32.91	3160
32.92	3173
32.93	3187
32.94	3161
32.95	3180
32.96	3201
32.97	3191
32.98	3221
32.99	3186
33.0	3133
33.01	3155
33.02	3180
33.03	3190
33.04	3120
33.05	3203
33.06	3243
33.07	3210
33.08	3153
33.09	3156
33.1	3161
33.11	3121
33.12	3101
33.13	3132
33.14	3142
33.15	3170
33.16	3172
33.17	3151
33.18	3132
33.19	3187
33.2	3130
33.21	3096
33.22	3089
33.23	3143
33.24	3084
33.25	3074
33.26	3064
33.27	3118
33.28	3104
33.29	3104
33.3	3094
33.31	3064
33.32	3092
33.33	3106
33.34	3129
33.35	3135
33.36	3080
33.37	3109
33.38	3090
33.39	3119
33.4	3111
33.41	3054
33.42	3053
33.43	3027
33.44	3044
33.45	3101
33.46	3107
33.47	3109
33.48	3063
33.49	3043
33.5	3080
33.51	3039
33.52	3002
33.53	3015
33.54	3013
33.55	3005
33.56	3099
33.57	3083
33.58	3047
33.59	3055
33.6	3069
33.61	3083
33.62	3096
33.63	3086
33.64	3072
33.65	2992
33.66	3000
33.67	3036
33.68	3055
33.69	3036
33.7	3021
33.71	3042
33.72	3009
33.73	3033
33.74	3011
33.75	2999
33.76	3032
33.77	3072
33.78	3028
33.79	3024
33.8	3076
33.81	3024
33.82	3032
33.83	2973
33.84	2910
33.85	2933
33.86	3028
33.87	2975
33.88	3025
33.89	3013
33.9	3007
33.91	3042
33.92	3021
33.93	3020
33.94	3025
33.95	3031
33.96	3008
33.97	3022
33.98	3096
33.99	3082
34.0	3005
34.01	2973
34.02	2914
34.03	2883
34.04	2925
34.05	3007
34.06	3043
34.07	3017
34.08	3030
34.09	3025
34.1	2994
34.11	2959
34.12	2962
34.13	3004
34.14	2987
34.15	2938
34.16	2938
34.17	2949
34.18	2931
34.19	2944
34.2	2969
34.21	2991
34.22	3009
34.23	2957
34.24	3004
34.25	3014
34.26	2937
34.27	2883
34.28	2936
34.29	2945
34.3	2894
34.31	2903
34.32	2956
34.33	2986
34.34	2939
34.35	2869
34.36	2925
34.37	2999
34.38	3005
34.39	2953
34.4	2913
34.41	2906
34.42	2955
34.43	2985
34.44	2968
34.45	2941
34.46	2913
34.47	2967
34.48	3016
34.49	2987
34.5	3026
34.51	3013
34.52	2991
34.53	2989
34.54	3001
34.55	2996
34.56	2993
34.57	2989
34.58	2995
34.59	3005
34.6	3010
34.61	3024
34.62	3092
34.63	3083
34.64	3036
34.65	3030
34.66	3019
34.67	3032
34.68	3026
34.69	3005
34.7	3064
34.71	3053
34.72	3027
34.73	3115
34.74	3121
34.75	3167
34.76	3199
34.77	3201
34.78	3282
34.79	3367
34.8	3426
34.81	3528
34.82	3651
34.83	3875
34.84	4120
34.85	4346
34.86	4621
34.87	4951
34.88	5398
34.89	5920
34.9	6540
34.91	7378
34.92	8139
34.93	8895
34.94	9526
34.95	9788
34.96	9670
34.97	9143
34.98	8324
34.99	7538
35.0	6888
35.01	6478
35.02	6315
35.03	6256
35.04	6214
35.05	6074
35.06	5650
35.07	5081
35.08	4543
35.09	3987
35.1	3556
35.11	3369
35.12	3266
35.13	3178
35.14	3065
35.15	3043
35.16	3055
35.17	3071
35.18	3015
35.19	2988
35.2	3020
35.21	3041
35.22	3002
35.23	2987
35.24	2955
35.25	2924
35.26	2938
35.27	2966
35.28	2963
35.29	2979
35.3	2996
35.31	2951
35.32	2938
35.33	2942
35.34	2922
35.35	2900
35.36	2921
35.37	2933
35.38	2956
35.39	2929
35.4	2931
35.41	2971
35.42	2949
35.43	2962
35.44	3029
35.45	3009
35.46	2949
35.47	2916
35.48	2894
35.49	2911
35.5	2921
35.51	2868
35.52	2828
35.53	2823
35.54	2876
35.55	2849
35.56	2888
35.57	2929
35.58	2927
35.59	2940
35.6	2938
35.61	2919
35.62	2916
35.63	2899
35.64	2907
35.65	2939
35.66	2931
35.67	2949
35.68	2921
35.69	2878
35.7	2916
35.71	2933
35.72	2927
35.73	2943
35.74	2900
35.75	2913
35.76	2934
35.77	2905
35.78	2856
35.79	2866
35.8	2902
35.81	2901
35.82	2892
35.83	2876
35.84	2860
35.85	2890
35.86	2916
35.87	2924
35.88	2928
35.89	2898
35.9	2855
35.91	2843
35.92	2882
35.93	2904
35.94	2905
35.95	2908
35.96	2911
35.97	2906
35.98	2893
35.99	2875
36.0	2873
36.01	2892
36.02	2873
36.03	2854
36.04	2834
36.05	2834
36.06	2858
36.07	2856
36.08	2857
36.09	2875
36.1	2900
36.11	2894
36.12	2845
36.13	2855
36.14	2897
36.15	2881
36.16	2869
36.17	2857
36.18	2895
36.19	2893
36.2	2846
36.21	2844
36.22	2863
36.23	2840
36.24	2818
36.25	2827
36.26	2839
36.27	2833
36.28	2822
36.29	2842
36.3	2849
36.31	2830
36.32	2839
36.33	2857
36.34	2818
36.35	2758
36.36	2754
36.37	2780
36.38	2783
36.39	2798
36.4	2804
36.41	2790
36.42	2802
36.43	2831
36.44	2841
36.45	2822
36.46	2825
36.47	2825
36.48	2803
36.49	2803
36.5	2820
36.51	2838
36.52	2843
36.53	2830
36.54	2789
36.55	2791
36.56	2780
36.57	2686
36.58	2704
36.59	2785
36.6	2810
36.61	2760
36.62	2697
36.63	2758
36.64	2778
36.65	2754
36.66	2798
36.67	2778
36.68	2716
36.69	2710
36.7	2722
36.71	2757
36.72	2772
36.73	2751
36.74	2741
36.75	2771
36.76	2775
36.77	2746
36.78	2726
36.79	2743
36.8	2756
36.81	2740
36.82	2786
36.83	2758
36.84	2652
36.85	2648
36.86	2693
36.87	2714
36.88	2722
36.89	2700
36.9	2685
36.91	2682
36.92	2681
36.93	2688
36.94	2659
36.95	2653
36.96	2651
36.97	2639
36.98	2690
36.99	2670
37.0	2602
37.01	2635
37.02	2679
37.03	2684
37.04	2665
37.05	2701
37.06	2770
37.07	2780
37.08	2708
37.09	2685
37.1	2683
37.11	2648
37.12	2623
37.13	2638
37.14	2636
37.15	2630
37.16	2632
37.17	2614
37.18	2591
37.19	2619
37.2	2652
37.21	2667
37.22	2617
37.23	2552
37.24	2588
37.25	2599
37.26	2582
37.27	2603
37.28	2581
37.29	2541
37.3	2549
37.31	2589
37.32	2612
37.33	2635
37.34	2666
37.35	2603
37.36	2541
37.37	2558
37.38	2582
37.39	2615
37.4	2606
37.41	2603
37.42	2612
37.43	2562
37.44	2543
37.45	2575
37.46	2563
37.47	2535
37.48	2533
37.49	2517
37.5	2516
37.51	2542
37.52	2535
37.53	2532
37.54	2528
37.55	2548
37.56	2566
37.57	2569
37.58	2556
37.59	2546
37.6	2565
37.61	2550
37.62	2550
37.63	2521
37.64	2486
37.65	2514
37.66	2512
37.67	2488
37.68	2542
37.69	2583
37.7	2547
37.71	2549
37.72	2560
37.73	2570
37.74	2608
37.75	2613
37.76	2589
37.77	2541
37.78	2550
37.79	2526
37.8	2474
37.81	2478
37.82	2493
37.83	2488
37.84	2500
37.85	2529
37.86	2494
37.87	2451
37.88	2452
37.89	2447
37.9	2461
37.91	2472
37.92	2469
37.93	2461
37.94	2428
37.95	2402
37.96	2467
37.97	2460
37.98	2454
37.99	2482
38.0	2478
38.01	2475
38.02	2486
38.03	2482
38.04	2484
38.05	2452
38.06	2447
38.07	2460
38.08	2439
38.09	2448
38.1	2459
38.11	2484
38.12	2492
38.13	2478
38.14	2493
38.15	2506
38.16	2507
38.17	2500
38.18	2476
38.19	2422
38.2	2419
38.21	2435
38.22	2446
38.23	2459
38.24	2448
38.25	2434
38.26	2419
38.27	2415
38.28	2462
38.29	2437
38.3	2420
38.31	2466
38.32	2419
38.33	2398
38.34	2422
38.35	2422
38.36	2422
38.37	2438
38.38	2411
38.39	2418
38.4	2436
38.41	2384
38.42	2354
38.43	2385
38.44	2423
38.45	2442
38.46	2463
38.47	2471
38.48	2427
38.49	2365
38.5	2391
38.51	2375
38.52	2393
38.53	2422
38.54	2429
38.55	2401
38.56	2420
38.57	2420
38.58	2421
38.59	2433
38.6	2442
38.61	2432
38.62	2404
38.63	2389
38.64	2416
38.65	2450
38.66	2455
38.67	2404
38.68	2330
38.69	2334
38.7	2381
38.71	2386
38.72	2388
38.73	2369
38.74	2367
38.75	2343
38.76	2347
38.77	2368
38.78	2359
38.79	2386
38.8	2416
38.81	2390
38.82	2331
38.83	2352
38.84	2405
38.85	2451
38.86	2444
38.87	2413
38.88	2402
38.89	2369
38.9	2316
38.91	2345
38.92	2383
38.93	2382
38.94	2347
38.95	2343
38.96	2356
38.97	2377
38.98	2307
38.99	2313
39.0	2370
39.01	2396
39.02	2381
39.03	2396
39.04	2392
39.05	2372
39.06	2364
39.07	2375
39.08	2364
39.09	2336
39.1	2358
39.11	2351
39.12	2364
39.13	2427
39.14	2403
39.15	2416
39.16	2456
39.17	2465
39.18	2402
39.19	2434
39.2	2370
39.21	2397
39.22	2393
39.23	2361
39.24	2404
39.25	2420
39.26	2457
39.27	2409
39.28	2327
39.29	2308
39.3	2360
39.31	2391
39.32	2365
39.33	2358
39.34	2397
39.35	2383
39.36	2328
39.37	2352
39.38	2350
39.39	2305
39.4	2282
39.41	2338
39.42	2399
39.43	2404
39.44	2408
39.45	2400
39.46	2365
39.47	2339
39.48	2349
39.49	2381
39.5	2344
39.51	2320
39.52	2363
39.53	2354
39.54	2281
39.55	2304
39.56	2308
39.57	2336
39.58	2343
39.59	2400
39.6	2320
39.61	2335
39.62	2356
39.63	2365
39.64	2346
39.65	2337
39.66	2307
39.67	2316
39.68	2358
39.69	2414
39.7	2417
39.71	2389
39.72	2384
39.73	2364
39.74	2332
39.75	2301
39.76	2350
39.77	2444
39.78	2382
39.79	2359
39.8	2358
39.81	2345
39.82	2335
39.83	2344
39.84	2375
39.85	2377
39.86	2332
39.87	2324
39.88	2319
39.89	2339
39.9	2335
39.91	2310
39.92	2327
39.93	2365
39.94	2370
39.95	2376
39.96	2335
39.97	2351
39.98	2338
39.99	2300
40.0	2310
40.01	2300
40.02	2315
40.03	2332
40.04	2333
40.05	2293
40.06	2339
40.07	2384
40.08	2393
40.09	2382
40.1	2381
40.11	2414
40.12	2442
40.13	2436
40.14	2420
40.15	2405
40.16	2415
40.17	2436
40.18	2460
40.19	2475
40.2	2414
40.21	2437
40.22	2506
40.23	2502
40.24	2499
40.25	2487
40.26	2465
40.27	2453
40.28	2495
40.29	2493
40.3	2576
40.31	2592
40.32	2565
40.33	2600
40.34	2659
40.35	2692
40.36	2705
40.37	2720
40.38	2786
40.39	2907
40.4	2973
40.41	3016
40.42	3166
40.43	3382
40.44	3556
40.45	3839
40.46	4121
40.47	4554
40.48	5222
40.49	5944
40.5	6848
40.51	7972
40.52	9357
40.53	10892
40.54	12612
40.55	14508
40.56	16196
40.57	17265
40.58	17482
40.59	16836
40.6	15444
40.61	13543
40.62	11688
40.63	10333
40.64	9461
40.65	9329
40.66	9550
40.67	9781
40.68	9790
40.69	9507
40.7	8847
40.71	7799
40.72	6655
40.73	5427
40.74	4406
40.75	3705
40.76	3296
40.77	2996
40.78	2773
40.79	2725
40.8	2664
40.81	2632
40.82	2634
40.83	2613
40.84	2592
40.85	2531
40.86	2579
40.87	2542
40.88	2529
40.89	2532
40.9	2438
40.91	2391
40.92	2468
40.93	2500
40.94	2452
40.95	2475
40.96	2492
40.97	2408
40.98	2416
40.99	2447
41.0	2446
41.01	2435
41.02	2361
41.03	2299
41.04	2249
41.05	2286
41.06	2292
41.07	2309
41.08	2315
41.09	2370
41.1	2312
41.11	2342
41.12	2358
41.13	2348
41.14	2328
41.15	2325
41.16	2342
41.17	2325
41.18	2313
41.19	2287
41.2	2282
41.21	2249
41.22	2259
41.23	2310
41.24	2355
41.25	2362
41.26	2314
41.27	2303
41.28	2300
41.29	2294
41.3	2274
41.31	2340
41.32	2324
41.33	2266
41.34	2263
41.35	2318
41.36	2330
41.37	2318
41.38	2300
41.39	2257
41.4	2248
41.41	2296
41.42	2337
41.43	2252
41.44	2204
41.45	2251
41.46	2259
41.47	2242
41.48	2257
41.49	2270
41.5	2314
41.51	2286
41.52	2315
41.53	2297
41.54	2301
41.55	2287
41.56	2255
41.57	2287
41.58	2243
41.59	2238
41.6	2285
41.61	2249
41.62	2282
41.63	2298
41.64	2247
41.65	2246
41.66	2322
41.67	2321
41.68	2309
41.69	2328
41.7	2314
41.71	2303
41.72	2278
41.73	2286
41.74	2255
41.75	2315
41.76	2285
41.77	2260
41.78	2285
41.79	2252
41.8	2299
41.81	2279
41.82	2274
41.83	2292
41.84	2315
41.85	2290
41.86	2204
41.87	2243
41.88	2241
41.89	2271
41.9	2288
41.91	2245
41.92	2238
41.93	2262
41.94	2287
41.95	2253
41.96	2283
41.97	2316
41.98	2285
41.99	2322
42.0	2282
42.01	2202
42.02	2244
42.03	2282
42.04	2339
42.05	2306
42.06	2256
42.07	2248
42.08	2232
42.09	2211
42.1	2211
42.11	2248
42.12	2263
42.13	2251
42.14	2190
42.15	2257
42.16	2254
42.17	2263
42.18	2263
42.19	2268
42.2	2210
42.21	2163
42.22	2218
42.23	2252
42.24	2269
42.25	2262
42.26	2228
42.27	2242
42.28	2244
42.29	2203
42.3	2200
42.31	2238
42.32	2233
42.33	2180
42.34	2243
42.35	2169
42.36	2190
42.37	2215
42.38	2268
42.39	2236
42.4	2217
42.41	2226
42.42	2222
42.43	2217
42.44	2204
42.45	2213
42.46	2170
42.47	2205
42.48	2234
42.49	2216
42.5	2230
42.51	2195
42.52	2188
42.53	2177
42.54	2196
42.55	2226
42.56	2199
42.57	2203
42.58	2277
42.59	2249
42.6	2177
42.61	2203
42.62	2233
42.63	2280
42.64	2267
42.65	2261
42.66	2201
42.67	2176
42.68	2154
42.69	2226
42.7	2195
42.71	2163
42.72	2153
42.73	2194
42.74	2173
42.75	2212
42.76	2263
42.77	2235
42.78	2225
42.79	2168
42.8	2205
42.81	2191
42.82	2141
42.83	2160
42.84	2150
42.85	2170
42.86	2177
42.87	2189
42.88	2210
42.89	2199
42.9	2181
42.91	2225
42.92	2229
42.93	2201
42.94	2200
42.95	2128
42.96	2187
42.97	2200
42.98	2207
42.99	2151
43.0	2144
43.01	2172
43.02	2176
43.03	2173
43.04	2168
43.05	2169
43.06	2228
43.07	2164
43.08	2110
43.09	2175
43.1	2200
43.11	2147
43.12	2168
43.13	2155
43.14	2181
43.15	2224
43.16	2131
43.17	2194
43.18	2188
43.19	2148
43.2	2168
43.21	2198
43.22	2182
43.23	2197
43.24	2152
43.25	2131
43.26	2197
43.27	2148
43.28	2142
43.29	2197
43.3	2174
43.31	2191
43.32	2216
43.33	2182
43.34	2192
43.35	2193
43.36	2210
43.37	2125
43.38	2142
43.39	2168
43.4	2131
43.41	2112
43.42	2117
43.43	2117
43.44	2157
43.45	2122
43.46	2121
43.47	2144
43.48	2143
43.49	2155
43.5	2139
43.51	2106
43.52	2098
43.53	2117
43.54	2104
43.55	2150
43.56	2152
43.57	2103
43.58	2144
43.59	2080
43.6	2098
43.61	2077
43.62	2081
43.63	2144
43.64	2146
43.65	2105
43.66	2121
43.67	2127
43.68	2131
43.69	2156
43.7	2157
43.71	2132
43.72	2141
43.73	2132
43.74	2071
43.75	2035
43.76	2085
43.77	2155
43.78	2093
43.79	2061
43.8	2059
43.81	2100
43.82	2137
43.83	2133
43.84	2098
43.85	2088
43.86	2110
43.87	2086
43.88	2062
43.89	2070
43.9	2107
43.91	2088
43.92	2106
43.93	2107
43.94	2038
43.95	2056
43.96	2067
43.97	2095
43.98	2085
43.99	2128
44.0	2090
44.01	2113
44.02	2132
44.03	2125
44.04	2098
44.05	2128
44.06	2118
44.07	2090
44.08	2037
44.09	2025
44.1	2094
44.11	2121
44.12	2117
44.13	2048
44.14	2068
44.15	2074
44.16	2067
44.17	2048
44.18	2078
44.19	2066
44.2	2028
44.21	2065
44.22	2080
44.23	2054
44.24	2070
44.25	2061
44.26	2061
44.27	2084
44.28	2104
44.29	2108
44.3	2089
44.31	2126
44.32	2133
44.33	2062
44.34	2073
44.35	2086
44.36	2058
44.37	2068
44.38	2126
44.39	2085
44.4	2066
44.41	2118
44.42	2089
44.43	2080
44.44	2088
44.45	2091
44.46	2112
44.47	2079
44.48	2041
44.49	2054
44.5	2099
44.51	2098
44.52	2069
44.53	2080
44.54	2077
44.55	2057
44.56	2022
44.57	2065
44.58	2100
44.59	2077
44.6	2057
44.61	2035
44.62	2018
44.63	2032
44.64	2099
44.65	2072
44.66	2100
44.67	2115
44.68	2060
44.69	2061
44.7	2067
44.71	2063
44.72	2072
44.73	2064
44.74	2035
44.75	2044
44.76	2096
44.77	2028
44.78	1999
44.79	2037
44.8	2067
44.81	2070
44.82	2064
44.83	2067
44.84	2086
44.85	2051
44.86	2049
44.87	2036
44.88	2039
44.89	2070
44.9	2061
44.91	2073
44.92	2049
44.93	2025
44.94	2024
44.95	2031
44.96	2025
44.97	2018
44.98	2015
44.99	2032
45.0	2029
45.01	2039
45.02	2032
45.03	2066
45.04	2079
45.05	2046
45.06	2040
45.07	2029
45.08	2041
45.09	2017
45.1	2045
45.11	2040
45.12	2027
45.13	2032
45.14	2070
45.15	2093
45.16	2051
45.17	2034
45.18	1994
45.19	1986
45.2	2020
45.21	2012
45.22	1994
45.23	2006
45.24	1986
45.25	1961
45.26	2038
45.27	2066
45.28	2071
45.29	2049
45.3	2034
45.31	2035
45.32	2050
45.33	2034
45.34	2058
45.35	2079
45.36	2064
45.37	2028
45.38	2048
45.39	2034
45.4	2042
45.41	2045
45.42	2050
45.43	2072
45.44	2116
45.45	2084
45.46	2035
45.47	2012
45.48	1988
45.49	2036
45.5	2039
45.51	2009
45.52	2023
45.53	2059
45.54	2050
45.55	2027
45.56	1985
45.57	2027
45.58	2000
45.59	1967
45.6	2002
45.61	2003
45.62	2015
45.63	2034
45.64	2039
45.65	2032
45.66	2018
45.67	2026
45.68	2034
45.69	2020
45.7	1955
45.71	1940
45.72	2011
45.73	2053
45.74	2019
45.75	2015
45.76	2038
45.77	2040
45.78	2022
45.79	2037
45.8	2031
45.81	2021
45.82	1996
45.83	1970
45.84	1935
45.85	1920
45.86	1964
45.87	2013
45.88	2008
45.89	1993
45.9	2013
45.91	1994
45.92	1967
45.93	1974
45.94	1983
45.95	2024
45.96	2057
45.97	2020
45.98	2002
45.99	1985
46.0	1979
46.01	2018
46.02	2001
46.03	1993
46.04	2049
46.05	2042
46.06	1978
46.07	1966
46.08	1983
46.09	2000
46.1	2010
46.11	1998
46.12	2038
46.13	2033
46.14	1959
46.15	1972
46.16	2024
46.17	2017
46.18	2012
46.19	2025
46.2	1988
46.21	2005
46.22	1986
46.23	1980
46.24	2009
46.25	1984
46.26	1982
46.27	2022
46.28	2005
46.29	1985
46.3	1983
46.31	2014
46.32	2030
46.33	2056
46.34	2016
46.35	1971
46.36	1971
46.37	2018
46.38	1982
46.39	1954
46.4	1960
46.41	1989
46.42	1983
46.43	2018
46.44	2028
46.45	1977
46.46	1954
46.47	1961
46.48	2011
46.49	2037
46.5	1986
46.51	1974
46.52	2007
46.53	2041
46.54	2002
46.55	1986
46.56	1993
46.57	2001
46.58	1995
46.59	1990
46.6	1984
46.61	1965
46.62	1976
46.63	1999
46.64	1995
46.65	1989
46.66	1985
46.67	1957
46.68	1949
46.69	1973
46.7	2001
46.71	2041
46.72	2035
46.73	1968
46.74	1931
46.75	2000
46.76	1997
46.77	2020
46.78	1991
46.79	1970
46.8	1961
46.81	1968
46.82	1981
46.83	1997
46.84	1991
46.85	1991
46.86	1966
46.87	1964
46.88	1965
46.89	1935
46.9	1944
46.91	1983
46.92	1989
46.93	2008
46.94	1994
46.95	1954
46.96	1962
46.97	1967
46.98	1981
46.99	2022
47.0	2022
47.01	1966
47.02	1966
47.03	1978
47.04	1975
47.05	2000
47.06	2019
47.07	1999
47.08	1959
47.09	1974
47.1	2014
47.11	2020
47.12	2025
47.13	2043
47.14	2020
47.15	1956
47.16	1939
47.17	2013
47.18	2029
47.19	2036
47.2	2015
47.21	1976
47.22	2018
47.23	1994
47.24	1992
47.25	2018
47.26	2019
47.27	1988
47.28	1987
47.29	1985
47.3	1998
47.31	2057
47.32	2034
47.33	1968
47.34	1984
47.35	1979
47.36	1960
47.37	1977
47.38	1995
47.39	1998
47.4	1984
47.41	1976
47.42	2036
47.43	2040
47.44	2039
47.45	2015
47.46	1950
47.47	1923
47.48	1942
47.49	2003
47.5	2009
47.51	1961
47.52	1966
47.53	2009
47.54	2011
47.55	1982
47.56	1993
47.57	2015
47.58	2006
47.59	1988
47.6	1997
47.61	1992
47.62	1988
47.63	1945
47.64	1972
47.65	1976
47.66	1982
47.67	2001
47.68	1972
47.69	1936
47.7	1928
47.71	1960
47.72	1970
47.73	1984
47.74	1995
47.75	1981
47.76	1971
47.77	1984
47.78	1962
47.79	1931
47.8	1912
47.81	1930
47.82	1941
47.83	1958
47.84	1959
47.85	1975
47.86	1952
47.87	1950
47.88	1978
47.89	1943
47.9	1921
47.91	1946
47.92	1947
47.93	1969
47.94	1984
47.95	1990
47.96	1990
47.97	1956
47.98	1967
47.99	2000
48.0	2016
48.01	1976
48.02	1950
48.03	1953
48.04	1942
48.05	1931
48.06	1915
48.07	1940
48.08	1974
48.09	1958
48.1	1955
48.11	1951
48.12	1943
48.13	1958
48.14	1983
48.15	1990
48.16	1988
48.17	1986
48.18	1968
48.19	1965
48.2	1979
48.21	1969
48.22	1962
48.23	1982
48.24	1965
48.25	1943
48.26	1959
48.27	1995
48.28	1981
48.29	1934
48.3	1945
48.31	1954
48.32	1970
48.33	1987
48.34	1953
48.35	1950
48.36	1950
48.37	1951
48.38	1942
48.39	1929
48.4	1945
48.41	1971
48.42	1966
48.43	1965
48.44	1929
48.45	1914
48.46	1920
48.47	1932
48.48	1929
48.49	1961
48.5	1980
48.51	1978
48.52	1987
48.53	1954
48.54	1917
48.55	1924
48.56	1959
48.57	1997
48.58	1970
48.59	1934
48.6	1944
48.61	1977
48.62	1950
48.63	1921
48.64	1919
48.65	1904
48.66	1942
48.67	1978
48.68	1987
48.69	1954
48.7	1947
48.71	1950
48.72	1963
48.73	1971
48.74	1976
48.75	1970
48.76	1959
48.77	1967
48.78	1959
48.79	1893
48.8	1889
48.81	1918
48.82	1896
48.83	1899
48.84	1942
48.85	1970
48.86	1966
48.87	1967
48.88	1969
48.89	1950
48.9	1952
48.91	1955
48.92	1923
48.93	1900
48.94	1911
48.95	1929
48.96	1933
48.97	1934
48.98	1910
48.99	1896
49.0	1888
49.01	1913
49.02	1973
49.03	1971
49.04	1942
49.05	1945
49.06	1933
49.07	1881
49.08	1860
49.09	1881
49.1	1886
49.11	1890
49.12	1904
49.13	1875
49.14	1860
49.15	1865
49.16	1875
49.17	1908
49.18	1909
49.19	1890
49.2	1911
49.21	1903
49.22	1851
49.23	1852
49.24	1898
49.25	1930
49.26	1916
49.27	1894
49.28	1879
49.29	1895
49.3	1930
49.31	1912
49.32	1899
49.33	1899
49.34	1876
49.35	1877
49.36	1897
49.37	1919
49.38	1917
49.39	1880
49.4	1879
49.41	1892
49.42	1920
49.43	1931
49.44	1906
49.45	1882
49.46	1880
49.47	1905
49.48	1924
49.49	1897
49.5	1872
49.51	1862
49.52	1876
49.53	1890
49.54	1907
49.55	1901
49.56	1885
49.57	1862
49.58	1859
49.59	1886
49.6	1938
49.61	1935
49.62	1907
49.63	1906
49.64	1902
49.65	1884
49.66	1870
49.67	1898
49.68	1910
49.69	1890
49.7	1894
49.71	1882
49.72	1868
49.73	1854
49.74	1856
49.75	1868
49.76	1863
49.77	1866
49.78	1838
49.79	1853
49.8	1899
49.81	1877
49.82	1839
49.83	1862
49.84	1876
49.85	1857
49.86	1863
49.87	1892
49.88	1910
49.89	1894
49.9	1858
49.91	1820
49.92	1814
49.93	1843
49.94	1852
49.95	1858
49.96	1871
49.97	1887
49.98	1879
49.99	1866
50.0	1885
50.01	1905
50.02	1873
50.03	1834
50.04	1848
50.05	1865
50.06	1859
50.07	1857
50.08	1875
50.09	1876
50.1	1856
50.11	1832
50.12	1829
50.13	1844
50.14	1847
50.15	1848
50.16	1831
50.17	1827
50.18	1822
50.19	1808
50.2	1828
50.21	1865
50.22	1863
50.23	1843
50.24	1831
50.25	1827
50.26	1828
50.27	1815
50.28	1807
50.29	1803
50.3	1804
50.31	1824
50.32	1847
50.33	1850
50.34	1807
50.35	1804
50.36	1869
50.37	1857
50.38	1827
50.39	1820
50.4	1809
50.41	1821
50.42	1854
50.43	1881
50.44	1888
50.45	1857
50.46	1807
50.47	1790
50.48	1813
50.49	1831
50.5	1825
50.51	1835
50.52	1843
50.53	1822
50.54	1807
50.55	1785
50.56	1773
50.57	1760
50.58	1750
50.59	1781
50.6	1867
50.61	1913
50.62	1856
50.63	1812
50.64	1815
50.65	1815
50.66	1838
50.67	1881
50.68	1861
50.69	1847
50.7	1842
50.71	1812
50.72	1789
50.73	1748
50.74	1729
50.75	1767
50.76	1808
50.77	1828
50.78	1824
50.79	1824
50.8	1843
50.81	1817
50.82	1789
50.83	1781
50.84	1795
50.85	1850
50.86	1839
50.87	1814
50.88	1820
50.89	1818
50.9	1821
50.91	1844
50.92	1873
50.93	1849
50.94	1808
50.95	1806
50.96	1826
50.97	1825
50.98	1815
50.99	1825
51.0	1825
51.01	1825
51.02	1834
51.03	1841
51.04	1810
51.05	1769
51.06	1799
51.07	1798
51.08	1765
51.09	1797
51.1	1826
51.11	1819
51.12	1805
51.13	1801
51.14	1783
51.15	1779
51.16	1809
51.17	1805
51.18	1776
51.19	1769
51.2	1785
51.21	1789
51.22	1791
51.23	1789
51.24	1786
51.25	1801
51.26	1847
51.27	1867
51.28	1799
51.29	1735
51.3	1758
51.31	1821
51.32	1819
51.33	1816
51.34	1836
51.35	1808
51.36	1797
51.37	1820
51.38	1818
51.39	1834
51.4	1820
51.41	1767
51.42	1760
51.43	1761
51.44	1778
51.45	1802
51.46	1769
51.47	1757
51.48	1769
51.49	1751
51.5	1776
51.51	1790
51.52	1777
51.53	1780
51.54	1758
51.55	1759
51.56	1796
51.57	1814
51.58	1788
51.59	1744
51.6	1759
51.61	1810
51.62	1809
51.63	1802
51.64	1824
51.65	1795
51.66	1761
51.67	1814
51.68	1828
51.69	1772
51.7	1753
51.71	1767
51.72	1788
51.73	1793
51.74	1783
51.75	1803
51.76	1820
51.77	1816
51.78	1802
51.79	1781
51.8	1757
51.81	1754
51.82	1795
51.83	1808
51.84	1791
51.85	1787
51.86	1763
51.87	1764
51.88	1784
51.89	1768
51.9	1743
51.91	1754
51.92	1792
51.93	1807
51.94	1802
51.95	1781
51.96	1768
51.97	1782
51.98	1785
51.99	1753
52.0	1705
52.01	1719
52.02	1751
52.03	1765
52.04	1774
52.05	1771
52.06	1774
52.07	1766
52.08	1733
52.09	1728
52.1	1754
52.11	1770
52.12	1787
52.13	1781
52.14	1805
52.15	1845
52.16	1820
52.17	1767
52.18	1752
52.19	1767
52.2	1742
52.21	1750
52.22	1795
52.23	1769
52.24	1728
52.25	1745
52.26	1778
52.27	1789
52.28	1785
52.29	1790
52.3	1797
52.31	1773
52.32	1755
52.33	1744
52.34	1753
52.35	1787
52.36	1802
52.37	1782
52.38	1760
52.39	1768
52.4	1780
52.41	1754
52.42	1717
52.43	1725
52.44	1773
52.45	1774
52.46	1734
52.47	1747
52.48	1789
52.49	1789
52.5	1777
52.51	1790
52.52	1805
52.53	1760
52.54	1723
52.55	1759
52.56	1756
52.57	1768
52.58	1795
52.59	1781
52.6	1743
52.61	1759
52.62	1773
52.63	1746
52.64	1723
52.65	1720
52.66	1719
52.67	1728
52.68	1763
52.69	1771
52.7	1762
52.71	1762
52.72	1740
52.73	1739
52.74	1738
52.75	1768
52.76	1769
52.77	1733
52.78	1710
52.79	1724
52.8	1755
52.81	1745
52.82	1708
52.83	1721
52.84	1739
52.85	1718
52.86	1725
52.87	1746
52.88	1733
52.89	1759
52.9	1779
52.91	1758
52.92	1730
52.93	1726
52.94	1769
52.95	1774
52.96	1738
52.97	1737
52.98	1741
52.99	1750
53.0	1749
53.01	1736
53.02	1709
53.03	1699
53.04	1694
53.05	1699
53.06	1746
53.07	1775
53.08	1775
53.09	1796
53.1	1798
53.11	1748
53.12	1734
53.13	1744
53.14	1744
53.15	1726
53.16	1724
53.17	1722
53.18	1742
53.19	1733
53.2	1713
53.21	1747
53.22	1764
53.23	1758
53.24	1754
53.25	1740
53.26	1747
53.27	1744
53.28	1711
53.29	1740
53.3	1795
53.31	1781
53.32	1756
53.33	1757
53.34	1735
53.35	1714
53.36	1730
53.37	1761
53.38	1759
53.39	1745
53.4	1728
53.41	1709
53.42	1715
53.43	1727
53.44	1740
53.45	1743
53.46	1701
53.47	1697
53.48	1744
53.49	1754
53.5	1768
53.51	1778
53.52	1744
53.53	1722
53.54	1747
53.55	1787
53.56	1773
53.57	1732
53.58	1757
53.59	1793
53.6	1768
53.61	1752
53.62	1751
53.63	1744
53.64	1751
53.65	1741
53.66	1708
53.67	1711
53.68	1760
53.69	1772
53.7	1769
53.71	1749
53.72	1707
53.73	1700
53.74	1756
53.75	1756
53.76	1740
53.77	1750
53.78	1739
53.79	1720
53.8	1737
53.81	1772
53.82	1757
53.83	1738
53.84	1744
53.85	1747
53.86	1739
53.87	1756
53.88	1740
53.89	1715
53.9	1741
53.91	1758
53.92	1715
53.93	1733
53.94	1757
53.95	1705
53.96	1707
53.97	1792
53.98	1819
53.99	1773
54.0	1729
54.01	1726
54.02	1719
54.03	1712
54.04	1715
54.05	1703
54.06	1692
54.07	1724
54.08	1745
54.09	1724
54.1	1706
54.11	1727
54.12	1759
54.13	1746
54.14	1723
54.15	1721
54.16	1703
54.17	1702
54.18	1745
54.19	1739
54.2	1702
54.21	1714
54.22	1731
54.23	1740
54.24	1751
54.25	1730
54.26	1709
54.27	1736
54.28	1758
54.29	1741
54.3	1720
54.31	1721
54.32	1708
54.33	1696
54.34	1709
54.35	1714
54.36	1694
54.37	1695
54.38	1704
54.39	1702
54.4	1722
54.41	1723
54.42	1717
54.43	1720
54.44	1720
54.45	1715
54.46	1669
54.47	1683
54.48	1711
54.49	1753
54.5	1780
54.51	1737
54.52	1693
54.53	1715
54.54	1737
54.55	1690
54.56	1688
54.57	1732
54.58	1724
54.59	1720
54.6	1735
54.61	1761
54.62	1758
54.63	1715
54.64	1690
54.65	1697
54.66	1696
54.67	1735
54.68	1745
54.69	1747
54.7	1736
54.71	1700
54.72	1701
54.73	1711
54.74	1724
54.75	1750
54.76	1762
54.77	1737
54.78	1714
54.79	1729
54.8	1719
54.81	1723
54.82	1713
54.83	1689
54.84	1707
54.85	1730
54.86	1753
54.87	1724
54.88	1719
54.89	1733
54.9	1757
54.91	1736
54.92	1730
54.93	1751
54.94	1756
54.95	1760
54.96	1767
54.97	1740
54.98	1700
54.99	1678
55.0	1702
55.01	1732
55.02	1702
55.03	1687
55.04	1705
55.05	1703
55.06	1698
55.07	1683
55.08	1702
55.09	1699
55.1	1676
55.11	1700
55.12	1697
55.13	1719
55.14	1729
55.15	1722
55.16	1719
55.17	1708
55.18	1676
55.19	1668
55.2	1707
55.21	1712
55.22	1691
55.23	1687
55.24	1684
55.25	1686
55.26	1735
55.27	1772
55.28	1766
55.29	1762
55.3	1740
55.31	1747
55.32	1714
55.33	1680
55.34	1679
55.35	1671
55.36	1688
55.37	1708
55.38	1709
55.39	1699
55.4	1684
55.41	1683
55.42	1700
55.43	1692
55.44	1692
55.45	1730
55.46	1738
55.47	1683
55.48	1658
55.49	1655
55.5	1650
55.51	1698
55.52	1720
55.53	1729
55.54	1731
55.55	1704
55.56	1710
55.57	1721
55.58	1698
55.59	1679
55.6	1688
55.61	1697
55.62	1711
55.63	1710
55.64	1690
55.65	1679
55.66	1692
55.67	1701
55.68	1668
55.69	1681
55.7	1700
55.71	1683
55.72	1668
55.73	1677
55.74	1689
55.75	1689
55.76	1702
55.77	1709
55.78	1699
55.79	1696
55.8	1723
55.81	1729
55.82	1743
55.83	1715
55.84	1712
55.85	1750
55.86	1706
55.87	1649
55.88	1648
55.89	1693
55.9	1666
55.91	1620
55.92	1640
55.93	1649
55.94	1659
55.95	1662
55.96	1656
55.97	1664
55.98	1719
55.99	1729
56.0	1711
56.01	1693
56.02	1685
56.03	1720
56.04	1728
56.05	1692
56.06	1668
56.07	1671
56.08	1685
56.09	1681
56.1	1625
56.11	1620
56.12	1650
56.13	1699
56.14	1679
56.15	1715
56.16	1668
56.17	1665
56.18	1658
56.19	1648
56.2	1660
56.21	1678
56.22	1662
56.23	1654
56.24	1680
56.25	1691
56.26	1700
56.27	1711
56.28	1685
56.29	1623
56.3	1618
56.31	1681
56.32	1690
56.33	1636
56.34	1623
56.35	1707
56.36	1735
56.37	1707
56.38	1692
56.39	1703
56.4	1662
56.41	1620
56.42	1630
56.43	1661
56.44	1672
56.45	1680
56.46	1664
56.47	1667
56.48	1700
56.49	1694
56.5	1698
56.51	1717
56.52	1739
56.53	1695
56.54	1682
56.55	1736
56.56	1746
56.57	1733
56.58	1765
56.59	1796
56.6	1789
56.61	1732
56.62	1715
56.63	1724
56.64	1713
56.65	1714
56.66	1706
56.67	1668
56.68	1652
56.69	1683
56.7	1719
56.71	1709
56.72	1655
56.73	1674
56.74	1712
56.75	1698
56.76	1712
56.77	1703
56.78	1700
56.79	1703
56.8	1696
56.81	1702
56.82	1694
56.83	1681
56.84	1664
56.85	1694
56.86	1675
56.87	1660
56.88	1677
56.89	1692
56.9	1714
56.91	1690
56.92	1641
56.93	1649
56.94	1689
56.95	1697
56.96	1692
56.97	1655
56.98	1673
56.99	1706
57.0	1721
57.01	1724
57.02	1700
57.03	1719
57.04	1720
57.05	1708
57.06	1714
57.07	1709
57.08	1728
57.09	1699
57.1	1651
57.11	1670
57.12	1660
57.13	1675
57.14	1690
57.15	1729
57.16	1736
57.17	1672
57.18	1680
57.19	1714
57.2	1688
57.21	1683
57.22	1668
57.23	1706
57.24	1692
57.25	1707
57.26	1700
57.27	1711
57.28	1706
57.29	1708
57.3	1684
57.31	1641
57.32	1661
57.33	1692
57.34	1684
57.35	1709
57.36	1718
57.37	1669
57.38	1656
57.39	1666
57.4	1643
57.41	1627
57.42	1689
57.43	1721
57.44	1689
57.45	1673
57.46	1678
57.47	1686
57.48	1672
57.49	1681
57.5	1705
57.51	1706
57.52	1723
57.53	1723
57.54	1688
57.55	1666
57.56	1631
57.57	1612
57.58	1631
57.59	1660
57.6	1674
57.61	1695
57.62	1730
57.63	1718
57.64	1690
57.65	1624
57.66	1621
57.67	1666
57.68	1695
57.69	1705
57.7	1718
57.71	1682
57.72	1674
57.73	1677
57.74	1699
57.75	1721
57.76	1694
57.77	1677
57.78	1651
57.79	1647
57.8	1660
57.81	1628
57.82	1659
57.83	1675
57.84	1639
57.85	1645
57.86	1687
57.87	1658
57.88	1665
57.89	1704
57.9	1690
57.91	1679
57.92	1691
57.93	1661
57.94	1629
57.95	1658
57.96	1667
57.97	1681
57.98	1640
57.99	1653
58.0	1665
58.01	1681
58.02	1648
58.03	1657
58.04	1668
58.05	1704
58.06	1735
58.07	1739
58.08	1709
58.09	1720
58.1	1740
58.11	1740
58.12	1727
58.13	1707
58.14	1687
58.15	1690
58.16	1690
58.17	1685
58.18	1666
58.19	1676
58.2	1681
58.21	1671
58.22	1699
58.23	1763
58.24	1781
58.25	1785
58.26	1763
58.27	1751
58.28	1745
58.29	1754
58.3	1746
58.31	1787
58.32	1804
58.33	1769
58.34	1755
58.35	1813
58.36	1829
58.37	1807
58.38	1844
58.39	1882
58.4	1870
58.41	1821
58.42	1812
58.43	1875
58.44	1902
58.45	1942
58.46	1953
58.47	1971
58.48	1928
58.49	1923
58.5	1917
58.51	1921
58.52	1935
58.53	1962
58.54	1994
58.55	2053
58.56	2089
58.57	2132
58.58	2194
58.59	2324
58.6	2515
58.61	2796
58.62	3092
58.63	3507
58.64	4057
58.65	4768
58.66	5723
58.67	6832
58.68	8103
58.69	9466
58.7	10834
58.71	11897
58.72	12469
58.73	12093
58.74	10948
58.75	9416
58.76	7739
58.77	6219
58.78	5063
58.79	4371
58.8	4066
58.81	4019
58.82	4313
58.83	4684
58.84	5180
58.85	5844
58.86	6422
58.87	6817
58.88	6947
58.89	6842
58.9	6431
58.91	5626
58.92	4737
58.93	4024
58.94	3347
58.95	2824
58.96	2485
58.97	2302
58.98	2197
58.99	2079
59.0	1986
59.01	1932
59.02	1917
59.03	1916
59.04	1901
59.05	1865
59.06	1857
59.07	1873
59.08	1854
59.09	1820
59.1	1798
59.11	1775
59.12	1778
59.13	1756
59.14	1777
59.15	1777
59.16	1755
59.17	1734
59.18	1716
59.19	1704
59.2	1739
59.21	1715
59.22	1710
59.23	1755
59.24	1740
59.25	1720
59.26	1702
59.27	1687
59.28	1666
59.29	1679
59.3	1691
59.31	1677
59.32	1688
59.33	1673
59.34	1633
59.35	1626
59.36	1672
59.37	1624
59.38	1640
59.39	1671
59.4	1709
59.41	1752
59.42	1744
59.43	1671
59.44	1642
59.45	1671
59.46	1674
59.47	1618
59.48	1659
59.49	1684
59.5	1687
59.51	1640
59.52	1613
59.53	1638
59.54	1680
59.55	1673
59.56	1656
59.57	1615
59.58	1608
59.59	1641
59.6	1603
59.61	1611
59.62	1689
59.63	1669
59.64	1613
59.65	1638
59.66	1705
59.67	1662
59.68	1645
59.69	1660
59.7	1654
59.71	1627
59.72	1602
59.73	1616
59.74	1610
59.75	1648
59.76	1627
59.77	1599
59.78	1624
59.79	1674
59.8	1642
59.81	1645
59.82	1623
59.83	1595
59.84	1609
59.85	1624
59.86	1632
59.87	1627
59.88	1647
59.89	1655
59.9	1637
59.91	1564
59.92	1634
59.93	1590
59.94	1590
59.95	1604
59.96	1584
59.97	1604
59.98	1609
59.99	1605
60.0	1614
60.01	1670
60.02	1653
60.03	1582
60.04	1590
60.05	1622
60.06	1646
60.07	1662
60.08	1637
60.09	1616
60.1	1631
60.11	1611
60.12	1594
60.13	1622
60.14	1624
60.15	1644
60.16	1656
60.17	1681
60.18	1656
60.19	1652
60.2	1665
60.21	1643
60.22	1606
60.23	1589
60.24	1616
60.25	1680
60.26	1681
60.27	1665
60.28	1624
60.29	1619
60.3	1608
60.31	1597
60.32	1594
60.33	1654
60.34	1676
60.35	1609
60.36	1592
60.37	1597
60.38	1609
60.39	1606
60.4	1593
60.41	1637
60.42	1639
60.43	1601
60.44	1620
60.45	1612
60.46	1633
60.47	1631
60.48	1625
60.49	1649
60.5	1636
60.51	1638
60.52	1614
60.53	1624
60.54	1625
60.55	1631
60.56	1662
60.57	1644
60.58	1619
60.59	1591
60.6	1615
60.61	1599
60.62	1587
60.63	1610
60.64	1601
60.65	1586
60.66	1565
60.67	1600
60.68	1602
60.69	1608
60.7	1635
60.71	1628
60.72	1621
60.73	1650
60.74	1643
60.75	1571
60.76	1582
60.77	1617
60.78	1619
60.79	1669
60.8	1677
60.81	1623
60.82	1613
60.83	1605
60.84	1630
60.85	1626
60.86	1637
60.87	1613
60.88	1633
60.89	1634
60.9	1636
60.91	1595
60.92	1588
60.93	1602
60.94	1627
60.95	1655
60.96	1672
60.97	1574
60.98	1557
60.99	1602
61.0	1622
61.01	1600
61.02	1618
61.03	1629
61.04	1619
61.05	1599
61.06	1556
61.07	1547
61.08	1548
61.09	1558
61.1	1604
61.11	1590
61.12	1549
61.13	1582
61.14	1593
61.15	1635
61.16	1618
61.17	1599
61.18	1600
61.19	1629
61.2	1650
61.21	1632
61.22	1637
61.23	1600
61.24	1601
61.25	1619
61.26	1608
61.27	1626
61.28	1642
61.29	1594
61.3	1571
61.31	1621
61.32	1636
61.33	1605
61.34	1647
61.35	1631
61.36	1601
61.37	1610
61.38	1586
61.39	1579
61.4	1636
61.41	1628
61.42	1613
61.43	1640
61.44	1602
61.45	1592
61.46	1603
61.47	1593
61.48	1654
61.49	1611
61.5	1596
61.51	1625
61.52	1586
61.53	1536
61.54	1574
61.55	1578
61.56	1588
61.57	1592
61.58	1588
61.59	1595
61.6	1619
61.61	1671
61.62	1612
61.63	1614
61.64	1609
61.65	1636
61.66	1627
61.67	1637
61.68	1599
61.69	1606
61.7	1630
61.71	1595
61.72	1569
61.73	1559
61.74	1584
61.75	1587
61.76	1585
61.77	1639
61.78	1620
61.79	1573
61.8	1526
61.81	1575
61.82	1615
61.83	1672
61.84	1621
61.85	1593
61.86	1577
61.87	1638
61.88	1604
61.89	1540
61.9	1545
61.91	1570
61.92	1582
61.93	1565
61.94	1532
61.95	1596
61.96	1586
61.97	1600
61.98	1613
61.99	1595
62.0	1578
62.01	1592
62.02	1604
62.03	1554
62.04	1561
62.05	1594
62.06	1585
62.07	1556
62.08	1574
62.09	1585
62.1	1591
62.11	1569
62.12	1597
62.13	1590
62.14	1566
62.15	1555
62.16	1591
62.17	1608
62.18	1598
62.19	1632
62.2	1651
62.21	1579
62.22	1593
62.23	1609
62.24	1588
62.25	1597
62.26	1577
62.27	1588
62.28	1577
62.29	1586
62.3	1574
62.31	1598
62.32	1595
62.33	1565
62.34	1613
62.35	1630
62.36	1584
62.37	1569
62.38	1568
62.39	1585
62.4	1620
62.41	1588
62.42	1600
62.43	1619
62.44	1594
62.45	1566
62.46	1617
62.47	1628
62.48	1613
62.49	1583
62.5	1546
62.51	1553
62.52	1567
62.53	1620
62.54	1640
62.55	1686
62.56	1628
62.57	1578
62.58	1568
62.59	1619
62.6	1617
62.61	1570
62.62	1568
62.63	1627
62.64	1602
62.65	1597
62.66	1599
62.67	1575
62.68	1553
62.69	1545
62.7	1538
62.71	1608
62.72	1605
62.73	1626
62.74	1636
62.75	1626
62.76	1587
62.77	1603
62.78	1613
62.79	1603
62.8	1608
62.81	1575
62.82	1575
62.83	1615
62.84	1591
62.85	1552
62.86	1612
62.87	1588
62.88	1560
62.89	1620
62.9	1595
62.91	1631
62.92	1602
62.93	1561
62.94	1564
62.95	1610
62.96	1624
62.97	1603
62.98	1561
62.99	1585
63.0	1583
63.01	1599
63.02	1592
63.03	1581
63.04	1576
63.05	1580
63.06	1623
63.07	1596
63.08	1596
63.09	1612
63.1	1606
63.11	1616
63.12	1562
63.13	1549
63.14	1600
63.15	1617
63.16	1588
63.17	1588
63.18	1593
63.19	1614
63.2	1540
63.21	1508
63.22	1517
63.23	1564
63.24	1582
63.25	1559
63.26	1549
63.27	1583
63.28	1537
63.29	1583
63.3	1545
63.31	1583
63.32	1574
63.33	1568
63.34	1617
63.35	1626
63.36	1548
63.37	1549
63.38	1625
63.39	1620
63.4	1568
63.41	1592
63.42	1579
63.43	1540
63.44	1554
63.45	1552
63.46	1567
63.47	1579
63.48	1550
63.49	1588
63.5	1608
63.51	1602
63.52	1617
63.53	1621
63.54	1572
63.55	1551
63.56	1568
63.57	1575
63.58	1586
63.59	1600
63.6	1619
63.61	1571
63.62	1563
63.63	1560
63.64	1578
63.65	1629
63.66	1573
63.67	1529
63.68	1550
63.69	1530
63.7	1547
63.71	1578
63.72	1563
63.73	1547
63.74	1565
63.75	1586
63.76	1591
63.77	1559
63.78	1612
63.79	1571
63.8	1520
63.81	1528
63.82	1537
63.83	1554
63.84	1592
63.85	1565
63.86	1541
63.87	1590
63.88	1598
63.89	1535
63.9	1565
63.91	1583
63.92	1542
63.93	1538
63.94	1605
63.95	1588
63.96	1591
63.97	1530
63.98	1565
63.99	1573
64.0	1538
64.01	1601
64.02	1600
64.03	1549
64.04	1596
64.05	1595
64.06	1552
64.07	1538
64.08	1528
64.09	1536
64.1	1566
64.11	1582
64.12	1524
64.13	1448
64.14	1464
64.15	1541
64.16	1559
64.17	1563
64.18	1591
64.19	1588
64.2	1612
64.21	1544
64.22	1574
64.23	1583
64.24	1599
64.25	1590
64.26	1602
64.27	1577
64.28	1584
64.29	1613
64.3	1587
64.31	1570
64.32	1580
64.33	1589
64.34	1572
64.35	1559
64.36	1552
64.37	1591
64.38	1536
64.39	1595
64.4	1541
64.41	1507
64.42	1563
64.43	1613
64.44	1632
64.45	1573
64.46	1591
64.47	1560
64.48	1563
64.49	1590
64.5	1555
64.51	1528
64.52	1530
64.53	1583
64.54	1570
64.55	1614
64.56	1636
64.57	1643
64.58	1622
64.59	1593
64.6	1576
64.61	1556
64.62	1554
64.63	1566
64.64	1573
64.65	1555
64.66	1500
64.67	1551
64.68	1554
64.69	1540
64.7	1538
64.71	1571
64.72	1619
64.73	1619
64.74	1564
64.75	1553
64.76	1535
64.77	1540
64.78	1535
64.79	1597
64.8	1531
64.81	1535
64.82	1540
64.83	1598
64.84	1567
64.85	1503
64.86	1536
64.87	1560
64.88	1552
64.89	1542
64.9	1554
64.91	1584
64.92	1590
64.93	1552
64.94	1536
64.95	1580
64.96	1575
64.97	1570
64.98	1530
64.99	1548
65.0	1584
65.01	1531
65.02	1536
65.03	1592
65.04	1543
65.05	1527
65.06	1533
65.07	1541
65.08	1536
65.09	1505
65.1	1496
65.11	1570
65.12	1565
65.13	1483
65.14	1532
65.15	1613
65.16	1530
65.17	1536
65.18	1535
65.19	1507
65.2	1570
65.21	1546
65.22	1568
65.23	1575
65.24	1560
65.25	1537
65.26	1569
65.27	1544
65.28	1553
65.29	1561
65.3	1595
65.31	1566
65.32	1528
65.33	1530
65.34	1554
65.35	1591
65.36	1565
65.37	1527
65.38	1553
65.39	1609
65.4	1561
65.41	1504
65.42	1513
65.43	1607
65.44	1567
65.45	1491
65.46	1585
65.47	1611
65.48	1624
65.49	1554
65.5	1539
65.51	1506
65.52	1506
65.53	1541
65.54	1544
65.55	1503
65.56	1492
65.57	1532
65.58	1527
65.59	1541
65.6	1578
65.61	1542
65.62	1505
65.63	1526
65.64	1527
65.65	1537
65.66	1560
65.67	1527
65.68	1535
65.69	1544
65.7	1518
65.71	1461
65.72	1459
65.73	1486
65.74	1518
65.75	1561
65.76	1576
65.77	1543
65.78	1538
65.79	1533
65.8	1516
65.81	1521
65.82	1563
65.83	1569
65.84	1525
65.85	1573
65.86	1604
65.87	1595
65.88	1582
65.89	1546
65.9	1540
65.91	1549
65.92	1544
65.93	1589
65.94	1516
65.95	1475
65.96	1542
65.97	1538
65.98	1553
65.99	1539
66.0	1571
66.01	1592
66.02	1571
66.03	1548
66.04	1486
66.05	1502
66.06	1487
66.07	1546
66.08	1531
66.09	1540
66.1	1555
66.11	1529
66.12	1599
66.13	1565
66.14	1562
66.15	1564
66.16	1513
66.17	1540
66.18	1558
66.19	1537
66.2	1564
66.21	1564
66.22	1487
66.23	1527
66.24	1572
66.25	1524
66.26	1557
66.27	1555
66.28	1558
66.29	1562
66.3	1540
66.31	1541
66.32	1586
66.33	1603
66.34	1558
66.35	1521
66.36	1514
66.37	1540
66.38	1455
66.39	1488
66.4	1505
66.41	1506
66.42	1492
66.43	1512
66.44	1524
66.45	1577
66.46	1572
66.47	1525
66.48	1495
66.49	1498
66.5	1535
66.51	1558
66.52	1587
66.53	1592
66.54	1535
66.55	1507
66.56	1543
66.57	1576
66.58	1539
66.59	1510
66.6	1554
66.61	1585
66.62	1535
66.63	1514
66.64	1522
66.65	1521
66.66	1518
66.67	1533
66.68	1507
66.69	1516
66.7	1509
66.71	1526
66.72	1534
66.73	1545
66.74	1512
66.75	1543
66.76	1520
66.77	1517
66.78	1543
66.79	1521
66.8	1570
66.81	1519
66.82	1508
66.83	1533
66.84	1529
66.85	1548
66.86	1568
66.87	1540
66.88	1508
66.89	1576
66.9	1566
66.91	1512
66.92	1546
66.93	1531
66.94	1585
66.95	1562
66.96	1508
66.97	1534
66.98	1551
66.99	1589
67.0	1555
67.01	1548
67.02	1549
67.03	1516
67.04	1491
67.05	1510
67.06	1544
67.07	1557
67.08	1568
67.09	1562
67.1	1532
67.11	1497
67.12	1506
67.13	1498
67.14	1475
67.15	1485
67.16	1521
67.17	1528
67.18	1505
67.19	1502
67.2	1558
67.21	1542
67.22	1541
67.23	1477
67.24	1445
67.25	1523
67.26	1601
67.27	1574
67.28	1528
67.29	1543
67.3	1521
67.31	1580
67.32	1543
67.33	1542
67.34	1588
67.35	1555
67.36	1563
67.37	1551
67.38	1573
67.39	1556
67.4	1580
67.41	1613
67.42	1581
67.43	1535
67.44	1518
67.45	1541
67.46	1563
67.47	1550
67.48	1515
67.49	1527
67.5	1526
67.51	1541
67.52	1496
67.53	1559
67.54	1560
67.55	1509
67.56	1534
67.57	1529
67.58	1504
67.59	1549
67.6	1553
67.61	1558
67.62	1492
67.63	1534
67.64	1531
67.65	1489
67.66	1511
67.67	1516
67.68	1538
67.69	1520
67.7	1487
67.71	1522
67.72	1566
67.73	1511
67.74	1549
67.75	1587
67.76	1553
67.77	1606
67.78	1607
67.79	1542
67.8	1511
67.81	1509
67.82	1540
67.83	1572
67.84	1534
67.85	1547
67.86	1518
67.87	1510
67.88	1548
67.89	1538
67.9	1526
67.91	1526
67.92	1515
67.93	1501
67.94	1448
67.95	1487
67.96	1511
67.97	1542
67.98	1519
67.99	1469
68.0	1529
68.01	1541
68.02	1523
68.03	1522
68.04	1531
68.05	1555
68.06	1592
68.07	1580
68.08	1566
68.09	1524
68.1	1500
68.11	1488
68.12	1485
68.13	1488
68.14	1524
68.15	1565
68.16	1562
68.17	1556
68.18	1590
68.19	1566
68.2	1553
68.21	1536
68.22	1519
68.23	1461
68.24	1516
68.25	1532
68.26	1565
68.27	1581
68.28	1575
68.29	1508
68.3	1476
68.31	1521
68.32	1567
68.33	1544
68.34	1528
68.35	1559
68.36	1591
68.37	1549
68.38	1516
68.39	1517
68.4	1501
68.41	1526
68.42	1512
68.43	1549
68.44	1554
68.45	1551
68.46	1555
68.47	1490
68.48	1472
68.49	1493
68.5	1483
68.51	1519
68.52	1533
68.53	1571
68.54	1534
68.55	1420
68.56	1475
68.57	1509
68.58	1512
68.59	1498
68.6	1563
68.61	1550
68.62	1540
68.63	1538
68.64	1514
68.65	1569
68.66	1560
68.67	1514
68.68	1536
68.69	1541
68.7	1532
68.71	1535
68.72	1547
68.73	1511
68.74	1488
68.75	1490
68.76	1522
68.77	1516
68.78	1485
68.79	1484
68.8	1504
68.81	1515
68.82	1483
68.83	1473
68.84	1512
68.85	1538
68.86	1578
68.87	1543
68.88	1526
68.89	1541
68.9	1534
68.91	1523
68.92	1506
68.93	1523
68.94	1547
68.95	1560
68.96	1514
68.97	1448
68.98	1482
68.99	1493
69.0	1469
69.01	1523
69.02	1546
69.03	1555
69.04	1516
69.05	1551
69.06	1509
69.07	1519
69.08	1555
69.09	1554
69.1	1542
69.11	1520
69.12	1531
69.13	1517
69.14	1529
69.15	1505
69.16	1512
69.17	1519
69.18	1509
69.19	1550
69.2	1569
69.21	1505
69.22	1521
69.23	1556
69.24	1535
69.25	1498
69.26	1531
69.27	1499
69.28	1514
69.29	1558
69.3	1554
69.31	1527
69.32	1493
69.33	1507
69.34	1527
69.35	1517
69.36	1543
69.37	1526
69.38	1511
69.39	1534
69.4	1494
69.41	1497
69.42	1484
69.43	1531
69.44	1514
69.45	1511
69.46	1476
69.47	1499
69.48	1547
69.49	1521
69.5	1545
69.51	1494
69.52	1498
69.53	1543
69.54	1556
69.55	1541
69.56	1519
69.57	1534
69.58	1554
69.59	1474
69.6	1485
69.61	1503
69.62	1495
69.63	1489
69.64	1497
69.65	1497
69.66	1490
69.67	1606
69.68	1625
69.69	1511
69.7	1467
69.71	1525
69.72	1565
69.73	1554
69.74	1561
69.75	1597
69.76	1573
69.77	1551
69.78	1540
69.79	1524
69.8	1563
69.81	1609
69.82	1566
69.83	1598
69.84	1652
69.85	1638
69.86	1617
69.87	1619
69.88	1600
69.89	1570
69.9	1620
69.91	1618
69.92	1588
69.93	1597
69.94	1594
69.95	1614
69.96	1604
69.97	1628
69.98	1668
69.99	1681
70.0	1665
70.01	1637
70.02	1676
70.03	1712
70.04	1729
70.05	1782
70.06	1907
70.07	1981
70.08	2114
70.09	2301
70.1	2565
70.11	2960
70.12	3393
70.13	3863
70.14	4511
70.15	5181
70.16	5739
70.17	6310
70.18	6496
70.19	6273
70.2	5775
70.21	5069
70.22	4404
70.23	3701
70.24	3052
70.25	2667
70.26	2467
70.27	2332
70.28	2195
70.29	2255
70.3	2309
70.31	2419
70.32	2575
70.33	2791
70.34	3021
70.35	3387
70.36	3665
70.37	3841
70.38	4000
70.39	3913
70.4	3687
70.41	3362
70.42	2949
70.43	2591
70.44	2311
70.45	2168
70.46	1965
70.47	1829
70.48	1722
70.49	1748
70.5	1715
70.51	1693
70.52	1633
70.53	1655
70.54	1604
70.55	1620
70.56	1664
70.57	1610
70.58	1593
70.59	1560
70.6	1568
70.61	1555
70.62	1542
70.63	1522
70.64	1501
70.65	1531
70.66	1536
70.67	1482
70.68	1504
70.69	1532
70.7	1520
70.71	1519
70.72	1506
70.73	1561
70.74	1535
70.75	1584
70.76	1545
70.77	1503
70.78	1487
70.79	1510
70.8	1520
70.81	1528
70.82	1512
70.83	1526
70.84	1545
70.85	1513
70.86	1510
70.87	1500
70.88	1496
70.89	1495
70.9	1535
70.91	1525
70.92	1506
70.93	1560
70.94	1552
70.95	1524
70.96	1510
70.97	1486
70.98	1513
70.99	1538
71.0	1546
71.01	1543
71.02	1485
71.03	1496
71.04	1499
71.05	1500
71.06	1516
71.07	1534
71.08	1517
71.09	1495
71.1	1505
71.11	1452
71.12	1448
71.13	1469
71.14	1500
71.15	1524
71.16	1564
71.17	1552
71.18	1504
71.19	1469
71.2	1446
71.21	1468
71.22	1456
71.23	1485
71.24	1506
71.25	1495
71.26	1481
71.27	1493
71.28	1472
71.29	1461
71.3	1503
71.31	1549
71.32	1488
71.33	1523
71.34	1532
71.35	1497
71.36	1511
71.37	1539
71.38	1521
71.39	1492
71.4	1465
71.41	1480
71.42	1501
71.43	1511
71.44	1497
71.45	1474
71.46	1466
71.47	1472
71.48	1470
71.49	1499
71.5	1501
71.51	1513
71.52	1525
71.53	1516
71.54	1514
71.55	1500
71.56	1491
71.57	1508
71.58	1467
71.59	1485
71.6	1450
71.61	1485
71.62	1539
71.63	1488
71.64	1461
71.65	1490
71.66	1539
71.67	1551
71.68	1507
71.69	1478
71.7	1486
71.71	1468
71.72	1469
71.73	1499
71.74	1535
71.75	1527
71.76	1497
71.77	1505
71.78	1547
71.79	1533
71.8	1521
71.81	1529
71.82	1519
71.83	1510
71.84	1518
71.85	1538
71.86	1500
71.87	1483
71.88	1517
71.89	1510
71.9	1532
71.91	1563
71.92	1529
71.93	1506
71.94	1482
71.95	1474
71.96	1467
71.97	1498
71.98	1505
71.99	1499
72.0	1501
72.01	1518
72.02	1558
72.03	1504
72.04	1473
72.05	1493
72.06	1522
72.07	1520
72.08	1542
72.09	1572
72.1	1534
72.11	1551
72.12	1529
72.13	1509
72.14	1487
72.15	1484
72.16	1531
72.17	1501
72.18	1461
72.19	1469
72.2	1482
72.21	1534
72.22	1523
72.23	1476
72.24	1455
72.25	1465
72.26	1494
72.27	1505
72.28	1485
72.29	1464
72.3	1471
72.31	1524
72.32	1509
72.33	1495
72.34	1452
72.35	1471
72.36	1471
72.37	1466
72.38	1449
72.39	1469
72.4	1500
72.41	1477
72.42	1491
72.43	1520
72.44	1493
72.45	1508
72.46	1471
72.47	1492
72.48	1469
72.49	1519
72.5	1479
72.51	1423
72.52	1465
72.53	1495
72.54	1474
72.55	1444
72.56	1459
72.57	1471
72.58	1470
72.59	1497
72.6	1497
72.61	1555
72.62	1546
72.63	1522
72.64	1515
72.65	1471
72.66	1463
72.67	1464
72.68	1468
72.69	1522
72.7	1526
72.71	1485
72.72	1467
72.73	1484
72.74	1486
72.75	1474
72.76	1504
72.77	1520
72.78	1499
72.79	1511
72.8	1534
72.81	1534
72.82	1577
72.83	1523
72.84	1505
72.85	1532
72.86	1502
72.87	1476
72.88	1468
72.89	1448
72.9	1477
72.91	1457
72.92	1435
72.93	1424
72.94	1453
72.95	1465
72.96	1461
72.97	1514
72.98	1505
72.99	1455
73.0	1461
73.01	1520
73.02	1524
73.03	1518
73.04	1535
73.05	1490
73.06	1446
73.07	1492
73.08	1524
73.09	1523
73.1	1497
73.11	1485
73.12	1472
73.13	1486
73.14	1463
73.15	1493
73.16	1536
73.17	1514
73.18	1485
73.19	1448
73.2	1489
73.21	1546
73.22	1565
73.23	1517
73.24	1514
73.25	1472
73.26	1532
73.27	1530
73.28	1479
73.29	1499
73.3	1544
73.31	1533
73.32	1470
73.33	1504
73.34	1437
73.35	1495
73.36	1509
73.37	1550
73.38	1549
73.39	1541
73.4	1544
73.41	1542
73.42	1532
73.43	1556
73.44	1515
73.45	1494
73.46	1573
73.47	1581
73.48	1552
73.49	1570
73.5	1569
73.51	1568
73.52	1607
73.53	1530
73.54	1543
73.55	1578
73.56	1529
73.57	1520
73.58	1556
73.59	1596
73.6	1562
73.61	1567
73.62	1582
73.63	1589
73.64	1619
73.65	1616
73.66	1656
73.67	1756
73.68	1799
73.69	1895
73.7	1970
73.71	2129
73.72	2292
73.73	2572
73.74	2871
73.75	3372
73.76	3792
73.77	4233
73.78	4705
73.79	5082
73.8	5165
73.81	4960
73.82	4523
73.83	4027
73.84	3492
73.85	3009
73.86	2716
73.87	2291
73.88	2099
73.89	2003
73.9	1989
73.91	1929
73.92	1926
73.93	1999
73.94	2079
73.95	2228
73.96	2334
73.97	2596
73.98	2879
73.99	3095
74.0	3214
74.01	3275
74.02	3247
74.03	3109
74.04	2902
74.05	2633
74.06	2399
74.07	2162
74.08	2017
74.09	1893
74.1	1802
74.11	1724
74.12	1665
74.13	1643
74.14	1640
74.15	1651
74.16	1596
74.17	1594
74.18	1560
74.19	1556
74.2	1547
74.21	1545
74.22	1520
74.23	1530
74.24	1517
74.25	1510
74.26	1551
74.27	1566
74.28	1537
74.29	1534
74.3	1541
74.31	1550
74.32	1530
74.33	1500
74.34	1510
74.35	1522
74.36	1513
74.37	1528
74.38	1551
74.39	1582
74.4	1585
74.41	1526
74.42	1531
74.43	1493
74.44	1433
74.45	1462
74.46	1501
74.47	1489
74.48	1530
74.49	1563
74.5	1485
74.51	1488
74.52	1463
74.53	1452
74.54	1487
74.55	1516
74.56	1505
74.57	1452
74.58	1456
74.59	1492
74.6	1489
74.61	1492
74.62	1498
74.63	1469
74.64	1492
74.65	1540
74.66	1529
74.67	1510
74.68	1477
74.69	1474
74.7	1483
74.71	1432
74.72	1479
74.73	1511
74.74	1525
74.75	1507
74.76	1496
74.77	1450
74.78	1471
74.79	1485
74.8	1459
74.81	1425
74.82	1446
74.83	1506
74.84	1482
74.85	1468
74.86	1497
74.87	1463
74.88	1419
74.89	1424
74.9	1463
74.91	1490
74.92	1452
74.93	1486
74.94	1471
74.95	1440
74.96	1479
74.97	1450
74.98	1507
74.99	1448
75.0	1437
75.01	1500
75.02	1518
75.03	1506
75.04	1519
75.05	1487
75.06	1491
75.07	1483
75.08	1429
75.09	1419
75.1	1462
75.11	1477
75.12	1442
75.13	1427
75.14	1466
75.15	1466
75.16	1442
75.17	1446
75.18	1442
75.19	1513
75.2	1450
75.21	1446
75.22	1430
75.23	1475
75.24	1480
75.25	1490
75.26	1459
75.27	1428
75.28	1451
75.29	1511
75.3	1470
75.31	1434
75.32	1464
75.33	1494
75.34	1503
75.35	1474
75.36	1500
75.37	1477
75.38	1496
75.39	1477
75.4	1409
75.41	1461
75.42	1451
75.43	1501
75.44	1499
75.45	1443
75.46	1467
75.47	1508
75.48	1495
75.49	1475
75.5	1496
75.51	1496
75.52	1492
75.53	1511
75.54	1509
75.55	1456
75.56	1480
75.57	1462
75.58	1433
75.59	1443
75.6	1438
75.61	1473
75.62	1473
75.63	1453
75.64	1432
75.65	1449
75.66	1461
75.67	1442
75.68	1423
75.69	1409
75.7	1430
75.71	1432
75.72	1452
75.73	1454
75.74	1431
75.75	1470
75.76	1485
75.77	1477
75.78	1442
75.79	1514
75.8	1502
75.81	1442
75.82	1507
75.83	1439
75.84	1410
75.85	1460
75.86	1498
75.87	1507
75.88	1448
75.89	1371
75.9	1410
75.91	1487
75.92	1488
75.93	1480
75.94	1496
75.95	1502
75.96	1468
75.97	1452
75.98	1455
75.99	1474
76.0	1487
76.01	1485
76.02	1468
76.03	1434
76.04	1483
76.05	1504
76.06	1504
76.07	1512
76.08	1507
76.09	1472
76.1	1472
76.11	1469
76.12	1446
76.13	1450
76.14	1451
76.15	1452
76.16	1426
76.17	1413
76.18	1406
76.19	1456
76.2	1488
76.21	1501
76.22	1493
76.23	1509
76.24	1490
76.25	1456
76.26	1472
76.27	1492
76.28	1494
76.29	1478
76.3	1439
76.31	1418
76.32	1426
76.33	1433
76.34	1402
76.35	1451
76.36	1480
76.37	1452
76.38	1473
76.39	1514
76.4	1503
76.41	1493
76.42	1436
76.43	1423
76.44	1400
76.45	1374
76.46	1475
76.47	1490
76.48	1472
76.49	1465
76.5	1493
76.51	1524
76.52	1468
76.53	1455
76.54	1463
76.55	1434
76.56	1457
76.57	1476
76.58	1450
76.59	1460
76.6	1472
76.61	1494
76.62	1459
76.63	1463
76.64	1470
76.65	1466
76.66	1451
76.67	1491
76.68	1466
76.69	1460
76.7	1479
76.71	1487
76.72	1451
76.73	1470
76.74	1419
76.75	1415
76.76	1432
76.77	1469
76.78	1471
76.79	1468
76.8	1441
76.81	1451
76.82	1449
76.83	1454
76.84	1457
76.85	1475
76.86	1495
76.87	1486
76.88	1491
76.89	1429
76.9	1472
76.91	1461
76.92	1441
76.93	1475
76.94	1484
76.95	1483
76.96	1473
76.97	1419
76.98	1393
76.99	1443
77.0	1425
77.01	1395
77.02	1447
77.03	1409
77.04	1404
77.05	1409
77.06	1452
77.07	1484
77.08	1422
77.09	1440
77.1	1482
77.11	1480
77.12	1462
77.13	1448
77.14	1455
77.15	1469
77.16	1470
77.17	1457
77.18	1456
77.19	1444
77.2	1442
77.21	1439
77.22	1404
77.23	1397
77.24	1476
77.25	1478
77.26	1472
77.27	1466
77.28	1458
77.29	1424
77.3	1442
77.31	1413
77.32	1438
77.33	1455
77.34	1403
77.35	1493
77.36	1473
77.37	1463
77.38	1468
77.39	1441
77.4	1434
77.41	1473
77.42	1451
77.43	1440
77.44	1459
77.45	1461
77.46	1453
77.47	1448
77.48	1398
77.49	1427
77.5	1474
77.51	1451
77.52	1406
77.53	1484
77.54	1423
77.55	1455
77.56	1476
77.57	1451
77.58	1500
77.59	1435
77.6	1441
77.61	1425
77.62	1407
77.63	1420
77.64	1386
77.65	1419
77.66	1415
77.67	1422
77.68	1433
77.69	1405
77.7	1438
77.71	1516
77.72	1485
77.73	1429
77.74	1393
77.75	1412
77.76	1398
77.77	1400
77.78	1420
77.79	1472
77.8	1481
77.81	1463
77.82	1499
77.83	1478
77.84	1448
77.85	1422
77.86	1426
77.87	1464
77.88	1416
77.89	1413
77.9	1469
77.91	1447
77.92	1456
77.93	1467
77.94	1454
77.95	1469
77.96	1455
77.97	1440
77.98	1484
77.99	1444
78.0	1402
78.01	1355
78.02	1391
78.03	1405
78.04	1421
78.05	1442
78.06	1477
78.07	1521
78.08	1466
78.09	1476
78.1	1497
78.11	1425
78.12	1433
78.13	1419
78.14	1434
78.15	1454
78.16	1444
78.17	1436
78.18	1440
78.19	1439
78.2	1429
78.21	1455
78.22	1463
78.23	1418
78.24	1429
78.25	1469
78.26	1466
78.27	1473
78.28	1439
78.29	1412
78.3	1418
78.31	1414
78.32	1430
78.33	1428
78.34	1429
78.35	1466
78.36	1443
78.37	1444
78.38	1489
78.39	1450
78.4	1410
78.41	1482
78.42	1454
78.43	1448
78.44	1420
78.45	1418
78.46	1448
78.47	1461
78.48	1466
78.49	1460
78.5	1464
78.51	1469
78.52	1459
78.53	1434
78.54	1427
78.55	1444
78.56	1418
78.57	1465
78.58	1427
78.59	1407
78.6	1411
78.61	1449
78.62	1457
78.63	1446
78.64	1465
78.65	1462
78.66	1492
78.67	1463
78.68	1445
78.69	1439
78.7	1446
78.71	1453
78.72	1480
78.73	1462
78.74	1439
78.75	1467
78.76	1453
78.77	1411
78.78	1388
78.79	1408
78.8	1422
78.81	1449
78.82	1452
78.83	1403
78.84	1427
78.85	1445
78.86	1405
78.87	1404
78.88	1415
78.89	1432
78.9	1451
78.91	1433
78.92	1468
78.93	1471
78.94	1449
78.95	1476
78.96	1460
78.97	1459
78.98	1458
78.99	1458
79.0	1468
79.01	1433
79.02	1430
79.03	1487
79.04	1447
79.05	1428
79.06	1490
79.07	1448
79.08	1436
79.09	1460
79.1	1418
79.11	1399
79.12	1453
79.13	1466
79.14	1438
79.15	1429
79.16	1444
79.17	1451
79.18	1465
79.19	1452
79.2	1396
79.21	1443
79.22	1437
79.23	1481
79.24	1441
79.25	1431
79.26	1448
79.27	1462
79.28	1420
79.29	1411
79.3	1457
79.31	1474
79.32	1416
79.33	1409
79.34	1410
79.35	1409
79.36	1452
79.37	1441
79.38	1425
79.39	1449
79.4	1455
79.41	1417
79.42	1406
79.43	1399
79.44	1466
79.45	1408
79.46	1421
79.47	1430
79.48	1381
79.49	1402
79.5	1424
79.51	1413
79.52	1417
79.53	1453
79.54	1457
79.55	1433
79.56	1435
79.57	1455
79.58	1425
79.59	1434
79.6	1386
79.61	1405
79.62	1424
79.63	1450
79.64	1460
79.65	1456
79.66	1430
79.67	1410
79.68	1418
79.69	1411
79.7	1402
79.71	1436
79.72	1429
79.73	1408
79.74	1416
79.75	1397
79.76	1379
79.77	1388
79.78	1408
79.79	1407
79.8	1372
79.81	1385
79.82	1387
79.83	1423
79.84	1415
79.85	1381
79.86	1372
79.87	1386
79.88	1425
79.89	1420
79.9	1476
79.91	1423
79.92	1422
79.93	1413
79.94	1434
79.95	1442
79.96	1400
79.97	1401
79.98	1407
79.99	1399
80.0	1378
80.01	1407
80.02	1431
80.03	1449
80.04	1424
80.05	1436
80.06	1442
80.07	1401
80.08	1410
80.09	1461
80.1	1439
80.11	1397
80.12	1405
80.13	1417
80.14	1452
80.15	1471
80.16	1414
80.17	1420
80.18	1429
80.19	1414
80.2	1401
80.21	1397
80.22	1417
80.23	1419
80.24	1419
80.25	1436
80.26	1466
80.27	1443
80.28	1412
80.29	1470
80.3	1466
80.31	1384
80.32	1400
80.33	1372
80.34	1353
80.35	1413
80.36	1446
80.37	1488
80.38	1470
80.39	1430
80.4	1430
80.41	1442
80.42	1422
80.43	1441
80.44	1430
80.45	1435
80.46	1457
80.47	1386
80.48	1410
80.49	1441
80.5	1434
80.51	1404
80.52	1386
80.53	1445
80.54	1406
80.55	1392
80.56	1410
80.57	1372
80.58	1409
80.59	1447
80.6	1463
80.61	1428
80.62	1398
80.63	1389
80.64	1400
80.65	1447
80.66	1433
80.67	1392
80.68	1401
80.69	1407
80.7	1434
80.71	1431
80.72	1422
80.73	1416
80.74	1419
80.75	1452
80.76	1435
80.77	1426
80.78	1478
80.79	1481
80.8	1399
80.81	1395
80.82	1413
80.83	1419
80.84	1413
80.85	1389
80.86	1415
80.87	1433
80.88	1446
80.89	1404
80.9	1420
80.91	1428
80.92	1408
80.93	1418
80.94	1391
80.95	1442
80.96	1422
80.97	1413
80.98	1422
80.99	1432
81.0	1426
81.01	1416
81.02	1395
81.03	1437
81.04	1429
81.05	1383
81.06	1398
81.07	1404
81.08	1401
81.09	1372
81.1	1395
81.11	1413
81.12	1378
81.13	1377
81.14	1427
81.15	1381
81.16	1374
81.17	1361
81.18	1333
81.19	1353
81.2	1408
81.21	1390
81.22	1380
81.23	1384
81.24	1418
81.25	1409
81.26	1409
81.27	1433
81.28	1432
81.29	1419
81.3	1399
81.31	1380
81.32	1420
81.33	1394
81.34	1370
81.35	1409
81.36	1483
81.37	1454
81.38	1366
81.39	1364
81.4	1409
81.41	1391
81.42	1393
81.43	1421
81.44	1436
81.45	1404
81.46	1404
81.47	1386
81.48	1324
81.49	1343
81.5	1404
81.51	1422
81.52	1404
81.53	1360
81.54	1360
81.55	1393
81.56	1439
81.57	1443
81.58	1380
81.59	1401
81.6	1356
81.61	1398
81.62	1426
81.63	1421
81.64	1424
81.65	1403
81.66	1378
81.67	1381
81.68	1385
81.69	1419
81.7	1435
81.71	1419
81.72	1419
81.73	1441
81.74	1403
81.75	1365
81.76	1391
81.77	1336
81.78	1373
81.79	1380
81.8	1392
81.81	1403
81.82	1394
81.83	1379
81.84	1412
81.85	1388
81.86	1349
81.87	1376
81.88	1443
81.89	1437
81.9	1391
81.91	1385
81.92	1418
81.93	1435
81.94	1394
81.95	1389
81.96	1357
81.97	1389
81.98	1402
81.99	1406
82.0	1425
82.01	1411
82.02	1410
82.03	1373
82.04	1403
82.05	1348
82.06	1353
82.07	1367
82.08	1366
82.09	1402
82.1	1385
82.11	1389
82.12	1399
82.13	1410
82.14	1401
82.15	1383
82.16	1371
82.17	1415
82.18	1436
82.19	1365
82.2	1407
82.21	1394
82.22	1407
82.23	1425
82.24	1444
82.25	1403
82.26	1368
82.27	1371
82.28	1376
82.29	1401
82.3	1427
82.31	1411
82.32	1371
82.33	1383
82.34	1423
82.35	1396
82.36	1402
82.37	1357
82.38	1361
82.39	1393
82.4	1356
82.41	1398
82.42	1426
82.43	1396
82.44	1392
82.45	1387
82.46	1396
82.47	1415
82.48	1421
82.49	1352
82.5	1332
82.51	1350
82.52	1390
82.53	1444
82.54	1432
82.55	1433
82.56	1405
82.57	1416
82.58	1396
82.59	1396
82.6	1382
82.61	1362
82.62	1332
82.63	1351
82.64	1374
82.65	1405
82.66	1392
82.67	1433
82.68	1386
82.69	1379
82.7	1408
82.71	1397
82.72	1392
82.73	1419
82.74	1431
82.75	1450
82.76	1447
82.77	1405
82.78	1370
82.79	1311
82.8	1357
82.81	1372
82.82	1382
82.83	1406
82.84	1411
82.85	1389
82.86	1416
82.87	1418
82.88	1404
82.89	1368
82.9	1344
82.91	1362
82.92	1389
82.93	1394
82.94	1364
82.95	1356
82.96	1372
82.97	1388
82.98	1368
82.99	1361
83.0	1399
83.01	1438
83.02	1399
83.03	1353
83.04	1369
83.05	1343
83.06	1359
83.07	1416
83.08	1452
83.09	1432
83.1	1417
83.11	1386
83.12	1373
83.13	1422
83.14	1397
83.15	1370
83.16	1402
83.17	1407
83.18	1389
83.19	1426
83.2	1436
83.21	1450
83.22	1409
83.23	1411
83.24	1341
83.25	1375
83.26	1380
83.27	1405
83.28	1407
83.29	1391
83.3	1414
83.31	1387
83.32	1363
83.33	1377
83.34	1394
83.35	1400
83.36	1394
83.37	1379
83.38	1390
83.39	1370
83.4	1389
83.41	1397
83.42	1421
83.43	1436
83.44	1377
83.45	1330
83.46	1361
83.47	1380
83.48	1360
83.49	1375
83.5	1368
83.51	1359
83.52	1387
83.53	1431
83.54	1437
83.55	1397
83.56	1359
83.57	1355
83.58	1395
83.59	1408
83.6	1362
83.61	1378
83.62	1391
83.63	1383
83.64	1364
83.65	1412
83.66	1349
83.67	1403
83.68	1408
83.69	1392
83.7	1370
83.71	1358
83.72	1351
83.73	1346
83.74	1378
83.75	1361
83.76	1337
83.77	1357
83.78	1380
83.79	1391
83.8	1361
83.81	1393
83.82	1367
83.83	1326
83.84	1356
83.85	1423
83.86	1419
83.87	1384
83.88	1373
83.89	1344
83.9	1376
83.91	1383
83.92	1408
83.93	1416
83.94	1404
83.95	1378
83.96	1391
83.97	1421
83.98	1437
83.99	1393
84.0	1402
84.01	1378
84.02	1380
84.03	1425
84.04	1406
84.05	1395
84.06	1412
84.07	1426
84.08	1396
84.09	1392
84.1	1440
84.11	1433
84.12	1406
84.13	1376
84.14	1388
84.15	1369
84.16	1365
84.17	1406
84.18	1403
84.19	1369
84.2	1376
84.21	1431
84.22	1386
84.23	1360
84.24	1371
84.25	1357
84.26	1339
84.27	1340
84.28	1357
84.29	1348
84.3	1385
84.31	1424
84.32	1426
84.33	1357
84.34	1328
84.35	1367
84.36	1327
84.37	1336
84.38	1355
84.39	1373
84.4	1422
84.41	1416
84.42	1383
84.43	1346
84.44	1362
84.45	1402
84.46	1416
84.47	1396
84.48	1368
84.49	1370
84.5	1365
84.51	1341
84.52	1339
84.53	1345
84.54	1376
84.55	1416
84.56	1423
84.57	1398
84.58	1388
84.59	1358
84.6	1349
84.61	1380
84.62	1406
84.63	1366
84.64	1358
84.65	1401
84.66	1420
84.67	1431
84.68	1400
84.69	1396
84.7	1402
84.71	1365
84.72	1398
84.73	1362
84.74	1339
84.75	1377
84.76	1389
84.77	1421
84.78	1352
84.79	1379
84.8	1386
84.81	1404
84.82	1362
84.83	1356
84.84	1371
84.85	1355
84.86	1357
84.87	1395
84.88	1370
84.89	1375
84.9	1394
84.91	1409
84.92	1388
84.93	1410
84.94	1394
84.95	1398
84.96	1406
84.97	1379
84.98	1395
84.99	1361
85.0	1383
85.01	1383
85.02	1386
85.03	1391
85.04	1386
85.05	1373
85.06	1358
85.07	1392
85.08	1415
85.09	1357
85.1	1351
85.11	1351
85.12	1356
85.13	1368
85.14	1345
85.15	1389
85.16	1408
85.17	1383
85.18	1387
85.19	1400
85.2	1386
85.21	1368
85.22	1363
85.23	1376
85.24	1370
85.25	1387
85.26	1392
85.27	1390
85.28	1385
85.29	1353
85.3	1339
85.31	1352
85.32	1393
85.33	1386
85.34	1388
85.35	1375
85.36	1398
85.37	1406
85.38	1357
85.39	1346
85.4	1372
85.41	1411
85.42	1412
85.43	1397
85.44	1389
85.45	1427
85.46	1421
85.47	1388
85.48	1361
85.49	1355
85.5	1341
85.51	1297
85.52	1341
85.53	1377
85.54	1393
85.55	1366
85.56	1388
85.57	1383
85.58	1371
85.59	1355
85.6	1382
85.61	1389
85.62	1382
85.63	1393
85.64	1366
85.65	1348
85.66	1378
85.67	1389
85.68	1342
85.69	1321
85.7	1350
85.71	1374
85.72	1384
85.73	1371
85.74	1356
85.75	1322
85.76	1330
85.77	1362
85.78	1339
85.79	1326
85.8	1353
85.81	1360
85.82	1400
85.83	1374
85.84	1325
85.85	1330
85.86	1372
85.87	1392
85.88	1364
85.89	1375
85.9	1365
85.91	1370
85.92	1376
85.93	1382
85.94	1383
85.95	1400
85.96	1397
85.97	1335
85.98	1347
85.99	1377
86.0	1366
86.01	1357
86.02	1340
86.03	1371
86.04	1363
86.05	1353
86.06	1361
86.07	1369
86.08	1376
86.09	1405
86.1	1388
86.11	1368
86.12	1411
86.13	1422
86.14	1390
86.15	1380
86.16	1393
86.17	1362
86.18	1370
86.19	1386
86.2	1348
86.21	1354
86.22	1374
86.23	1371
86.24	1353
86.25	1356
86.26	1380
86.27	1373
86.28	1361
86.29	1348
86.3	1336
86.31	1337
86.32	1342
86.33	1361
86.34	1388
86.35	1388
86.36	1349
86.37	1373
86.38	1392
86.39	1387
86.4	1374
86.41	1375
86.42	1367
86.43	1376
86.44	1385
86.45	1416
86.46	1392
86.47	1396
86.48	1345
86.49	1344
86.5	1334
86.51	1312
86.52	1316
86.53	1324
86.54	1347
86.55	1362
86.56	1335
86.57	1327
86.58	1354
86.59	1317
86.6	1326
86.61	1364
86.62	1351
86.63	1359
86.64	1392
86.65	1381
86.66	1391
86.67	1389
86.68	1373
86.69	1362
86.7	1361
86.71	1337
86.72	1358
86.73	1379
86.74	1349
86.75	1331
86.76	1347
86.77	1375
86.78	1377
86.79	1398
86.8	1353
86.81	1333
86.82	1331
86.83	1360
86.84	1391
86.85	1369
86.86	1350
86.87	1353
86.88	1365
86.89	1423
86.9	1392
86.91	1372
86.92	1354
86.93	1331
86.94	1344
86.95	1362
86.96	1372
86.97	1376
86.98	1391
86.99	1406
87.0	1373
87.01	1348
87.02	1364
87.03	1358
87.04	1348
87.05	1341
87.06	1356
87.07	1374
87.08	1346
87.09	1342
87.1	1376
87.11	1369
87.12	1339
87.13	1357
87.14	1371
87.15	1378
87.16	1389
87.17	1383
87.18	1352
87.19	1367
87.2	1396
87.21	1406
87.22	1360
87.23	1328
87.24	1353
87.25	1410
87.26	1371
87.27	1358
87.28	1370
87.29	1414
87.3	1413
87.31	1415
87.32	1403
87.33	1380
87.34	1393
87.35	1407
87.36	1386
87.37	1372
87.38	1390
87.39	1440
87.4	1441
87.41	1413
87.42	1414
87.43	1418
87.44	1430
87.45	1409
87.46	1396
87.47	1361
87.48	1385
87.49	1354
87.5	1371
87.51	1396
87.52	1400
87.53	1399
87.54	1408
87.55	1405
87.56	1370
87.57	1375
87.58	1396
87.59	1413
87.6	1418
87.61	1422
87.62	1442
87.63	1468
87.64	1451
87.65	1458
87.66	1568
87.67	1610
87.68	1652
87.69	1710
87.7	1853
87.71	1972
87.72	2132
87.73	2400
87.74	2651
87.75	2819
87.76	2936
87.77	3031
87.78	3027
87.79	2880
87.8	2727
87.81	2541
87.82	2294
87.83	2076
87.84	1945
87.85	1845
87.86	1747
87.87	1659
87.88	1610
87.89	1545
87.9	1482
87.91	1461
87.92	1504
87.93	1498
87.94	1506
87.95	1565
87.96	1598
87.97	1663
87.98	1729
87.99	1824
88.0	1903
88.01	1983
88.02	2051
88.03	2127
88.04	2179
88.05	2185
88.06	2175
88.07	2122
88.08	1980
88.09	1871
88.1	1774
88.11	1669
88.12	1641
88.13	1588
88.14	1505
88.15	1458
88.16	1465
88.17	1484
88.18	1448
88.19	1388
88.2	1432
88.21	1466
88.22	1424
88.23	1368
88.24	1352
88.25	1365
88.26	1386
88.27	1398
88.28	1402
88.29	1423
88.3	1425
88.31	1399
88.32	1380
88.33	1402
88.34	1426
88.35	1448
88.36	1423
88.37	1422
88.38	1389
88.39	1353
88.4	1376
88.41	1399
88.42	1413
88.43	1404
88.44	1352
88.45	1329
88.46	1339
88.47	1313
88.48	1339
88.49	1383
88.5	1362
88.51	1351
88.52	1396
88.53	1384
88.54	1378
88.55	1374
88.56	1343
88.57	1322
88.58	1362
88.59	1408
88.6	1397
88.61	1359
88.62	1365
88.63	1377
88.64	1350
88.65	1361
88.66	1369
88.67	1357
88.68	1370
88.69	1379
88.7	1382
88.71	1370
88.72	1358
88.73	1377
88.74	1351
88.75	1349
88.76	1369
88.77	1376
88.78	1376
88.79	1376
88.8	1382
88.81	1387
88.82	1394
88.83	1363
88.84	1392
88.85	1436
88.86	1429
88.87	1389
88.88	1375
88.89	1358
88.9	1343
88.91	1350
88.92	1345
88.93	1336
88.94	1324
88.95	1332
88.96	1355
88.97	1350
88.98	1371
88.99	1401
89.0	1414
89.01	1399
89.02	1391
89.03	1379
89.04	1362
89.05	1352
89.06	1339
89.07	1341
89.08	1349
89.09	1349
89.1	1356
89.11	1383
89.12	1397
89.13	1393
89.14	1353
89.15	1341
89.16	1344
89.17	1353
89.18	1361
89.19	1381
89.2	1375
89.21	1347
89.22	1358
89.23	1374
89.24	1375
89.25	1367
89.26	1350
89.27	1340
89.28	1357
89.29	1354
89.3	1347
89.31	1367
89.32	1391
89.33	1375
89.34	1361
89.35	1372
89.36	1356
89.37	1372
89.38	1394
89.39	1391
89.4	1427
89.41	1426
89.42	1376
89.43	1359
89.44	1371
89.45	1345
89.46	1348
89.47	1388
89.48	1387
89.49	1371
89.5	1375
89.51	1384
89.52	1387
89.53	1363
89.54	1343
89.55	1349
89.56	1377
89.57	1370
89.58	1344
89.59	1350
89.6	1368
89.61	1376
89.62	1356
89.63	1333
89.64	1367
89.65	1370
89.66	1333
89.67	1335
89.68	1371
89.69	1383
89.7	1392
89.71	1410
89.72	1395
89.73	1376
89.74	1347
89.75	1328
89.76	1325
89.77	1325
89.78	1388
89.79	1414
89.8	1410
89.81	1382
89.82	1352
89.83	1353
89.84	1371
89.85	1379
89.86	1388
89.87	1387
89.88	1361
89.89	1345
89.9	1368
89.91	1390
89.92	1369
89.93	1354
89.94	1357
89.95	1366
89.96	1355
89.97	1352
89.98	1352
89.99	1340
90.0	1330
90.01	1354
90.02	1371
90.03	1371
90.04	1374
90.05	1377
90.06	1375
90.07	1358
90.08	1348
90.09	1336
90.1	1343
90.11	1343
90.12	1352
90.13	1358
90.14	1347
90.15	1362
90.16	1367
90.17	1358
90.18	1356
90.19	1362
90.2	1385
90.21	1367
90.22	1369
90.23	1392
90.24	1393
90.25	1373
90.26	1369
90.27	1387
90.28	1371
90.29	1345
90.3	1365
90.31	1375
90.32	1359
90.33	1336
90.34	1320
90.35	1340
90.36	1360
90.37	1358
90.38	1363
90.39	1365
90.4	1339
90.41	1358
90.42	1390
90.43	1345
90.44	1313
90.45	1322
90.46	1330
90.47	1370
90.48	1372
90.49	1373
90.5	1371
90.51	1365
90.52	1372
90.53	1373
90.54	1354
90.55	1330
90.56	1332
90.57	1348
90.58	1358
90.59	1360
90.6	1346
90.61	1339
90.62	1362
90.63	1356
90.64	1336
90.65	1351
90.66	1374
90.67	1361
90.68	1333
90.69	1328
90.7	1354
90.71	1365
90.72	1358
90.73	1370
90.74	1372
90.75	1350
90.76	1376
90.77	1398
90.78	1353
90.79	1324
90.8	1327
90.81	1327
90.82	1348
90.83	1397
90.84	1374
90.85	1342
90.86	1375
90.87	1398
90.88	1388
90.89	1385
90.9	1377
90.91	1345
90.92	1346
90.93	1366
90.94	1342
90.95	1315
90.96	1327
90.97	1335
90.98	1324
90.99	1325
91.0	1325
91.01	1331
91.02	1351
91.03	1365
91.04	1365
91.05	1375
91.06	1387
91.07	1385
91.08	1390
91.09	1381
91.1	1362
91.11	1331
91.12	1325
91.13	1350
91.14	1359
91.15	1373
91.16	1401
91.17	1394
91.18	1374
91.19	1387
91.2	1386
91.21	1367
91.22	1363
91.23	1361
91.24	1336
91.25	1314
91.26	1342
91.27	1360
91.28	1366
91.29	1389
91.3	1400
91.31	1387
91.32	1378
91.33	1394
91.34	1381
91.35	1353
91.36	1374
91.37	1398
91.38	1379
91.39	1372
91.4	1370
91.41	1362
91.42	1357
91.43	1338
91.44	1363
91.45	1405
91.46	1395
91.47	1372
91.48	1364
91.49	1375
91.5	1377
91.51	1380
91.52	1378
91.53	1351
91.54	1338
91.55	1346
91.56	1360
91.57	1344
91.58	1340
91.59	1356
91.6	1352
91.61	1352
91.62	1362
91.63	1361
91.64	1353
91.65	1351
91.66	1378
91.67	1388
91.68	1372
91.69	1400
91.7	1421
91.71	1404
91.72	1376
91.73	1364
91.74	1394
91.75	1392
91.76	1391
91.77	1392
91.78	1360
91.79	1369
91.8	1363
91.81	1372
91.82	1381
91.83	1373
91.84	1382
91.85	1367
91.86	1326
91.87	1318
91.88	1330
91.89	1351
91.9	1364
91.91	1365
91.92	1345
91.93	1306
91.94	1330
91.95	1378
91.96	1392
91.97	1373
91.98	1347
91.99	1327
92.0	1323
92.01	1356
92.02	1378
92.03	1372
92.04	1375
92.05	1354
92.06	1338
92.07	1352
92.08	1346
92.09	1343
92.1	1342
92.11	1344
92.12	1360
92.13	1370
92.14	1380
92.15	1388
92.16	1368
92.17	1357
92.18	1355
92.19	1366
92.2	1374
92.21	1379
92.22	1384
92.23	1372
92.24	1377
92.25	1386
92.26	1356
92.27	1343
92.28	1361
92.29	1362
92.3	1351
92.31	1349
92.32	1358
92.33	1367
92.34	1377
92.35	1386
92.36	1395
92.37	1384
92.38	1399
92.39	1414
92.4	1398
92.41	1390
92.42	1384
92.43	1371
92.44	1353
92.45	1337
92.46	1331
92.47	1348
92.48	1373
92.49	1361
92.5	1358
92.51	1402
92.52	1426
92.53	1415
92.54	1378
92.55	1356
92.56	1360
92.57	1350
92.58	1323
92.59	1320
92.6	1326
92.61	1328
92.62	1358
92.63	1379
92.64	1398
92.65	1428
92.66	1423
92.67	1382
92.68	1342
92.69	1330
92.7	1329
92.71	1336
92.72	1382
92.73	1432
92.74	1430
92.75	1392
92.76	1356
92.77	1355
92.78	1365
92.79	1379
92.8	1360
92.81	1344
92.82	1345
92.83	1356
92.84	1347
92.85	1385
92.86	1410
92.87	1382
92.88	1376
92.89	1401
92.9	1395
92.91	1358
92.92	1365
92.93	1385
92.94	1361
92.95	1373
92.96	1402
92.97	1394
92.98	1382
92.99	1410
93.0	1399
93.01	1390
93.02	1402
93.03	1411
93.04	1385
93.05	1383
93.06	1383
93.07	1363
93.08	1372
93.09	1393
93.1	1368
93.11	1367
93.12	1366
93.13	1356
93.14	1349
93.15	1356
93.16	1366
93.17	1363
93.18	1367
93.19	1401
93.2	1378
93.21	1345
93.22	1350
93.23	1332
93.24	1348
93.25	1397
93.26	1408
93.27	1390
93.28	1381
93.29	1347
93.3	1323
93.31	1354
93.32	1351
93.33	1350
93.34	1374
93.35	1373
93.36	1346
93.37	1334
93.38	1327
93.39	1324
93.4	1345
93.41	1354
93.42	1314
93.43	1309
93.44	1333
93.45	1350
93.46	1337
93.47	1344
93.48	1348
93.49	1362
93.5	1340
93.51	1322
93.52	1378
93.53	1415
93.54	1398
93.55	1402
93.56	1379
93.57	1330
93.58	1350
93.59	1398
93.6	1402
93.61	1395
93.62	1391
93.63	1391
93.64	1355
93.65	1349
93.66	1349
93.67	1357
93.68	1372
93.69	1349
93.7	1344
93.71	1363
93.72	1374
93.73	1378
93.74	1400
93.75	1397
93.76	1397
93.77	1418
93.78	1390
93.79	1337
93.8	1323
93.81	1344
93.82	1347
93.83	1372
93.84	1385
93.85	1372
93.86	1392
93.87	1407
93.88	1398
93.89	1367
93.9	1348
93.91	1361
93.92	1355
93.93	1352
93.94	1362
93.95	1374
93.96	1411
93.97	1406
93.98	1372
93.99	1355
94.0	1378
94.01	1380
94.02	1358
94.03	1390
94.04	1399
94.05	1378
94.06	1347
94.07	1334
94.08	1363
94.09	1373
94.1	1365
94.11	1384
94.12	1386
94.13	1365
94.14	1369
94.15	1372
94.16	1385
94.17	1362
94.18	1349
94.19	1347
94.2	1351
94.21	1363
94.22	1392
94.23	1365
94.24	1359
94.25	1360
94.26	1374
94.27	1370
94.28	1321
94.29	1326
94.3	1326
94.31	1315
94.32	1335
94.33	1364
94.34	1355
94.35	1384
94.36	1392
94.37	1350
94.38	1358
94.39	1399
94.4	1391
94.41	1373
94.42	1355
94.43	1343
94.44	1384
94.45	1405
94.46	1422
94.47	1418
94.48	1394
94.49	1359
94.5	1353
94.51	1348
94.52	1364
94.53	1350
94.54	1355
94.55	1365
94.56	1357
94.57	1353
94.58	1333
94.59	1352
94.6	1376
94.61	1387
94.62	1382
94.63	1354
94.64	1331
94.65	1323
94.66	1338
94.67	1385
94.68	1407
94.69	1407
94.7	1385
94.71	1373
94.72	1376
94.73	1368
94.74	1360
94.75	1385
94.76	1360
94.77	1348
94.78	1312
94.79	1318
94.8	1339
94.81	1353
94.82	1349
94.83	1363
94.84	1391
94.85	1377
94.86	1338
94.87	1326
94.88	1343
94.89	1374
94.9	1403
94.91	1391
94.92	1377
94.93	1363
94.94	1379
94.95	1419
94.96	1404
94.97	1389
94.98	1395
94.99	1392
95.0	1360
95.01	1381
95.02	1415
95.03	1378
95.04	1376
95.05	1398
95.06	1383
95.07	1369
95.08	1332
95.09	1379
95.1	1379
95.11	1360
95.12	1394
95.13	1404
95.14	1418
95.15	1382
95.16	1357
95.17	1353
95.18	1364
95.19	1355
95.2	1367
95.21	1356
95.22	1331
95.23	1338
95.24	1355
95.25	1363
95.26	1352
95.27	1345
95.28	1368
95.29	1357
95.3	1362
95.31	1353
95.32	1316
95.33	1300
95.34	1359
95.35	1382
95.36	1380
95.37	1362
95.38	1342
95.39	1346
95.4	1381
95.41	1409
95.42	1367
95.43	1360
95.44	1388
95.45	1383
95.46	1365
95.47	1383
95.48	1398
95.49	1367
95.5	1355
95.51	1377
95.52	1356
95.53	1337
95.54	1340
95.55	1377
95.56	1349
95.57	1357
95.58	1391
95.59	1376
95.6	1352
95.61	1357
95.62	1382
95.63	1404
95.64	1388
95.65	1401
95.66	1413
95.67	1371
95.68	1368
95.69	1367
95.7	1368
95.71	1407
95.72	1409
95.73	1405
95.74	1368
95.75	1378
95.76	1384
95.77	1412
95.78	1406
95.79	1370
95.8	1368
95.81	1378
95.82	1358
95.83	1363
95.84	1366
95.85	1373
95.86	1350
95.87	1365
95.88	1381
95.89	1391
95.9	1358
95.91	1345
95.92	1384
95.93	1397
95.94	1375
95.95	1376
95.96	1372
95.97	1317
95.98	1312
95.99	1345
96.0	1387
96.01	1386
96.02	1336
96.03	1369
96.04	1403
96.05	1387
96.06	1342
96.07	1340
96.08	1371
96.09	1384
96.1	1376
96.11	1414
96.12	1386
96.13	1361
96.14	1380
96.15	1406
96.16	1396
96.17	1396
96.18	1411
96.19	1409
96.2	1364
96.21	1366
96.22	1341
96.23	1332
96.24	1358
96.25	1382
96.26	1373
96.27	1350
96.28	1386
96.29	1422
96.3	1403
96.31	1380
96.32	1382
96.33	1406
96.34	1428
96.35	1400
96.36	1367
96.37	1388
96.38	1405
96.39	1371
96.4	1377
96.41	1359
96.42	1365
96.43	1370
96.44	1365
96.45	1382
96.46	1370
96.47	1360
96.48	1361
96.49	1385
96.5	1400
96.51	1381
96.52	1348
96.53	1369
96.54	1335
96.55	1325
96.56	1339
96.57	1408
96.58	1417
96.59	1400
96.6	1391
96.61	1395
96.62	1410
96.63	1397
96.64	1359
96.65	1355
96.66	1348
96.67	1367
96.68	1392
96.69	1374
96.7	1379
96.71	1397
96.72	1416
96.73	1416
96.74	1400
96.75	1388
96.76	1410
96.77	1392
96.78	1361
96.79	1342
96.8	1334
96.81	1344
96.82	1376
96.83	1389
96.84	1375
96.85	1362
96.86	1385
96.87	1387
96.88	1388
96.89	1397
96.9	1358
96.91	1326
96.92	1328
96.93	1335
96.94	1365
96.95	1378
96.96	1383
96.97	1394
96.98	1382
96.99	1408
97.0	1394
97.01	1389
97.02	1411
97.03	1384
97.04	1389
97.05	1387
97.06	1438
97.07	1411
97.08	1383
97.09	1363
97.1	1373
97.11	1357
97.12	1363
97.13	1415
97.14	1437
97.15	1440
97.16	1419
97.17	1400
97.18	1365
97.19	1387
97.2	1396
97.21	1411
97.22	1410
97.23	1370
97.24	1385
97.25	1384
97.26	1429
97.27	1401
97.28	1395
97.29	1387
97.3	1442
97.31	1447
97.32	1406
97.33	1382
97.34	1366
97.35	1399
97.36	1415
97.37	1390
97.38	1382
97.39	1350
97.4	1370
97.41	1406
97.42	1446
97.43	1422
97.44	1424
97.45	1433
97.46	1399
97.47	1430
97.48	1426
97.49	1398
97.5	1405
97.51	1417
97.52	1473
97.53	1444
97.54	1392
97.55	1361
97.56	1378
97.57	1372
97.58	1362
97.59	1406
97.6	1413
97.61	1470
97.62	1430
97.63	1413
97.64	1410
97.65	1441
97.66	1429
97.67	1440
97.68	1426
97.69	1417
97.7	1353
97.71	1358
97.72	1420
97.73	1414
97.74	1434
97.75	1463
97.76	1461
97.77	1421
97.78	1408
97.79	1402
97.8	1444
97.81	1443
97.82	1504
97.83	1453
97.84	1413
97.85	1391
97.86	1413
97.87	1442
97.88	1449
97.89	1498
97.9	1459
97.91	1470
97.92	1481
97.93	1483
97.94	1488
97.95	1489
97.96	1508
97.97	1531
97.98	1526
97.99	1567
98.0	1554
98.01	1606
98.02	1704
98.03	1757
98.04	1850
98.05	1968
98.06	2149
98.07	2326
98.08	2625
98.09	2885
98.1	3129
98.11	3233
98.12	3328
98.13	3403
98.14	3271
98.15	3084
98.16	2887
98.17	2600
98.18	2355
98.19	2131
98.2	1963
98.21	1820
98.22	1778
98.23	1733
98.24	1664
98.25	1604
98.26	1601
98.27	1588
98.28	1498
98.29	1540
98.3	1560
98.31	1534
98.32	1545
98.33	1601
98.34	1530
98.35	1594
98.36	1583
98.37	1638
98.38	1705
98.39	1775
98.4	1898
98.41	2053
98.42	2163
98.43	2244
98.44	2302
98.45	2365
98.46	2387
98.47	2334
98.48	2245
98.49	2123
98.5	1985
98.51	1855
98.52	1749
98.53	1688
98.54	1665
98.55	1600
98.56	1488
98.57	1501
98.58	1519
98.59	1452
98.6	1459
98.61	1465
98.62	1441
98.63	1397
98.64	1439
98.65	1476
98.66	1435
98.67	1411
98.68	1439
98.69	1385
98.7	1409
98.71	1487
98.72	1457
98.73	1418
98.74	1384
98.75	1428
98.76	1438
98.77	1454
98.78	1433
98.79	1401
98.8	1401
98.81	1399
98.82	1358
98.83	1354
98.84	1375
98.85	1410
98.86	1439
98.87	1463
98.88	1374
98.89	1404
98.9	1439
98.91	1442
98.92	1431
98.93	1388
98.94	1379
98.95	1393
98.96	1382
98.97	1386
98.98	1379
98.99	1372
99.0	1380
99.01	1405
99.02	1395
99.03	1387
99.04	1364
99.05	1321
99.06	1370
99.07	1399
99.08	1368
99.09	1411
99.1	1428
99.11	1369
99.12	1383
99.13	1393
99.14	1416
99.15	1393
99.16	1419
99.17	1433
99.18	1401
99.19	1416
99.2	1421
99.21	1467
99.22	1406
99.23	1399
99.24	1340
99.25	1327
99.26	1363
99.27	1341
99.28	1351
99.29	1404
99.3	1404
99.31	1422
99.32	1388
99.33	1395
99.34	1398
99.35	1414
99.36	1396
99.37	1373
99.38	1362
99.39	1351
99.4	1381
99.41	1406
99.42	1418
99.43	1348
99.44	1302
99.45	1339
99.46	1388
99.47	1389
99.48	1390
99.49	1373
99.5	1399
99.51	1352
99.52	1333
99.53	1334
99.54	1371
99.55	1383
99.56	1365
99.57	1346
99.58	1368
99.59	1368
99.6	1385
99.61	1416
99.62	1386
99.63	1392
99.64	1382
99.65	1340
99.66	1341
99.67	1370
99.68	1380
99.69	1390
99.7	1412
99.71	1407
99.72	1377
99.73	1389
99.74	1449
99.75	1375
99.76	1374
99.77	1350
99.78	1387
99.79	1350
99.8	1425
99.81	1388
99.82	1380
99.83	1425
99.84	1416
99.85	1405
99.86	1462
99.87	1418
99.88	1401
99.89	1403
99.9	1393
99.91	1367
99.92	1411
99.93	1432
99.94	1394
99.95	1396
99.96	1442
99.97	1427
99.98	1411
99.99	1346
100.0	1411
